143.27941176470603
85.49411764705934
83.39819004524938
88.76742081448016
88.53212669683312
90.39547511312273
98.21447963800965
100.58371040724043
106.39185520362057
126.75927601810031
28.020814479638183
52.36018099547543
56.25791855203654
59.971945701357825
57.37285067873338
44.21357466063376
135.31493212669767
105.76018099547576
101.65791855203679
94.70588235294176
92.19185520362046
94.33936651583767
89.96561085972905
90.51040723981956
97.40633484162954
96.19638009049832
94.30588235294175
99.44524886877888
95.8651583710413
95.6705882352947
97.99004524886936
93.47601809954807
89.85429864253449
93.1963800904983
89.23167420814535
107.37828054298708
184.35384615384726
161.46244343891502
165.81266968325892
167.53393665158472
167.45158371040824
172.40814479638112
172.22895927601914
167.99728506787432
167.65429864253497
166.94389140271593
161.13122171945798
160.66063348416387
156.8090497737566
153.66515837104168
158.72307692307788
156.96651583710502
148.65067873303258
161.91221719457113
75.42443438914074
112.98099547511379
75.95203619909549
137.48687782805513
155.83981900452582
162.1656108597295
155.8615384615394
150.71402714932216
154.61085972850773
152.7429864253403
151.1321266968335
157.4407239819014
155.88506787330414
154.82533936651677
105.07058823529476
71.36289592760224
92.79185520362047
99.32307692307752
114.61176470588303
75.99547511312264
44.068778280543256
48.80904977375595
49.76651583710438
26.210859728506954
122.72398190045323
103.50769230769293
92.64162895927657
133.66606334841708
160.0941176470598
164.27330316742183
162.30678733031772
159.7194570135756
165.29411764705984
163.8841628959286
163.0995475113132
168.05972850678836
167.6633484162906
163.289592760182
166.06153846153947
163.76380090497835
160.40904977375664
162.91583710407338
159.74208144796478
154.0588235294127
158.16651583710504
155.51493212669777
153.0244343891412
155.27511312217288
152.98823529411857
151.6425339366525
157.8126696832589
159.78461538461636
159.11945701357564
162.93303167420913
161.1918552036209
153.42081447963895
160.35746606334936
155.0090497737566
147.5131221719466
149.2425339366525
148.4316742081457
146.1420814479647
149.78914027149415
141.2751131221728
144.27692307692396
118.60995475113194
129.1520361990958
109.58733031674274
136.09864253393746
154.3375565610869
146.43257918552126
147.27239819004615
144.28778280543074
142.3547511312226
147.0153846153855
148.2579185520371
147.3285067873312
153.76832579185614
156.37647058823626
178.71221719457122
87.74751131221774
105.54389140271559
112.04072398190112
78.69773755656158
41.3882352941179
42.60452488687808
75.52217194570181
109.50135746606401
93.08506787330373
142.40904977375652
160.25610859728604
154.80542986425434
158.60271493212767
155.89683257918645
154.96561085972945
159.46696832579283
160.8045248868788
157.19457013574757
160.32398190045348
160.172850678734
157.37647058823626
161.17375565610956
156.68597285067966
151.7185520362
154.13846153846248
152.60180995475207
148.3846153846163
150.39728506787424
147.22443438914118
144.61628959276106
148.59547511312306
148.7837104072407
145.23800904977463
152.18642533936745
154.31493212669778
152.95113122172037
157.28687782805525
151.75113122172039
146.18823529411856
150.82895927601902
148.53031674208233
141.760180995476
144.77104072398276
142.2153846153855
140.97828054298728
145.23800904977463
134.864253393666
124.541176470589
107.4904977375572
110.6226244343898
123.60361990950302
150.30950226244437
147.12036199095112
139.7782805429873
143.3647058823538
142.25610859728596
141.32036199095108
144.58009049773844
142.98190045248955
143.03891402715018
149.56380090497828
153.1158371040733
156.32850678733126
167.5502262443449
168.06515837104172
105.61990950226308
72.0325791855208
34.870588235294335
35.963800904977596
73.23981900452533
110.10497737556626
96.75203619909561
168.30407239819107
158.8995475113132
153.2742081447973
155.84977375565705
154.98371040724075
151.1402714932136
156.2723981900462
156.5303167420824
155.38099547511408
160.5420814479648
160.83800904977474
157.3466063348426
161.27782805429962
159.69321266968421
155.13936651583805
157.98552036199192
154.40542986425433
148.987330316743
151.06153846153939
150.65067873303258
147.10588235294207
149.2343891402724
148.03257918552126
145.65882352941264
149.7131221719466
153.29502262443532
151.1511312217204
156.20180995475206
156.58914027149416
147.98552036199186
152.57285067873397
150.2479638009059
142.753846153847
144.11402714932214
143.35294117647146
140.50316742081534
144.17737556561173
139.17104072398274
138.8769230769239
110.87420814479705
144.79276018099637
99.58009049773815
135.4190045248877
149.23619909502355
141.79276018099634
143.11131221719543
141.82352941176555
139.73212669683343
142.99095022624522
145.16289592760268
143.2126696832588
149.1583710407249
152.20633484162988
154.90859728506882
167.81538461538563
176.86063348416397
115.27511312217266
38.65248868778305
36.366515837104295
41.63800904977401
38.04977375565634
51.787330316742406
135.147511312218
171.4570135746617
162.6316742081458
153.4723981900462
153.94298642534028
151.79457013574753
148.9683257918561
154.30497737556652
155.35294117647152
152.7746606334851
157.88778280543082
158.63167420814574
156.1221719457023
158.79819004524984
156.3402714932136
152.2425339366525
154.20723981900545
153.20361990950317
147.65158371040812
150.47330316742176
146.77737556561175
143.33484162896013
147.90950226244433
146.98733031674297
143.59547511312306
147.22986425339457
151.90950226244436
151.86244343891497
155.76380090497832
155.82081447963895
146.8153846153855
150.61719457013666
151.16742081448055
142.68054298642622
142.7674208144805
140.6597285067882
138.9936651583719
143.81357466063434
135.68687782805512
144.0461538461547
93.03438914027207
141.7520361990959
93.16742081448021
139.24162895927685
148.649773755657
139.56651583710493
141.80542986425428
141.85339366515922
139.4036199095031
142.5040723981909
142.32488687782893
142.04796380090585
148.39457013574753
152.3348416289602
153.97466063348512
165.0579185520372
174.50588235294225
114.045248868779
38.74298642533961
35.20090497737578
40.272398190045486
39.43438914027173
57.909502262443795
87.26515837104125
176.09321266968433
161.60904977375662
153.57556561086068
154.49954751131315
151.8343891402724
148.04796380090588
152.3294117647068
153.68868778280637
152.70135746606428
157.6226244343901
157.85791855203715
153.8117647058833
157.58099547511407
157.23891402715026
152.73122171945795
154.10407239819097
152.16832579185612
148.61809954751223
151.3375565610869
149.86244343891494
144.61900452488777
146.4208144796389
146.0416289592769
144.47511312217281
147.45972850678822
149.34660633484253
148.65882352941267
154.35203619909598
156.26244343891497
152.75022624434484
150.1900452488697
151.36199095022715
146.78009049773846
147.5285067873312
143.5257918552045
138.42895927601893
143.16380090497825
142.34841628959362
140.7040723981909
134.3918552036207
154.10497737556653
62.53755656108636
148.50045248868867
58.93393665158408
116.19909502262514
150.99095022624525
146.36108597285155
139.2488687782814
142.90045248868864
142.6416289592769
138.39909502262526
141.9945701357475
143.9683257918561
143.25339366515925
148.81809954751222
149.81538461538554
149.97285067873395
159.96199095022723
169.38914027149423
156.26787330316836
129.33212669683337
52.517647058823854
36.09954751131244
41.055203619909754
41.144796380090746
37.085067873303394
101.04886877828116
143.08687782805515
167.99457013574764
165.21266968325892
158.2651583710417
151.43076923077015
154.36742081448057
155.0669683257928
153.67330316742175
156.30226244343987
157.39366515837202
156.37737556561183
161.01900452488786
161.5737556561096
157.2461538461548
161.20633484162994
158.28416289592855
156.18190045248963
158.61538461538558
156.04796380090593
150.44796380090588
154.10769230769324
153.17918552036292
147.79276018099637
149.96561085972942
148.20542986425428
145.93303167420902
150.0895927601819
149.01538461538553
148.00180995475205
153.60452488687878
156.09502262443533
155.25067873303263
160.33303167420914
150.456108597286
148.39819004524978
152.18642533936745
148.78552036199187
143.22352941176558
144.760180995476
144.93484162896016
142.83800904977463
147.98009049773847
139.05972850678816
101.32398190045312
104.03076923076985
117.14570135746679
116.60361990950298
154.70950226244437
150.25339366515928
143.4733031674217
147.12217194570226
147.7891402714941
144.03257918552123
147.59366515837195
147.1819004524896
145.91945701357554
151.95113122172037
154.49411764705977
154.94932126696926
164.4235294117657
172.80542986425445
112.02262443438983
106.84615384615448
34.85701357466085
39.85972850678757
42.656108597285325
40.28506787330341
76.02986425339412
103.34208144796443
172.00995475113223
163.66968325791953
164.74389140271592
160.9547511312227
155.67963800905073
159.8171945701367
159.42986425339464
157.593665158372
163.0886877828064
163.56018099547612
161.02533936651682
164.96651583710508
166.7285067873313
161.67963800905076
164.87058823529512
162.03167420814577
158.66606334841725
161.3972850678743
157.7221719457023
152.89411764705974
155.02443438914122
154.21447963801
151.05882352941268
155.14932126696925
152.47873303167512
149.8588235294127
156.22714932126792
159.90859728506885
158.67692307692403
162.89140271493312
157.8932126696842
152.61176470588327
158.862443438915
153.85791855203712
146.19095022624523
149.25429864253485
148.11764705882442
147.10588235294205
150.8162895927611
140.58914027149407
101.98009049773819
94.07330316742139
111.93936651583778
128.35113122172024
157.76651583710503
150.55565610859819
145.4416289592769
149.88597285067965
148.88868778280633
145.82714932126788
150.476923076924
151.82533936651674
150.9638009049783
159.06063348416384
163.5185520362001
165.73303167420917
120.03981900452563
114.90678733031744
16.658823529411876
39.045248868778515
44.71674208144824
45.48235294117675
40.94298642533962
92.24434389140326
81.78642533936701
174.41266968325897
163.52398190045346
157.7837104072408
159.95656108597382
157.7837104072408
153.9828054298652
159.84796380090594
162.3149321266978
159.17647058823627
163.43257918552135
163.59457013574757
160.5909502262453
164.9257918552046
163.24977375565712
157.25701357466158
159.67963800905073
157.14208144796476
153.2932126696842
155.70497737556656
151.93665158371132
148.40904977375658
152.73031674208235
153.46606334841724
151.51493212669777
158.4651583710417
159.89230769230866
158.19095022624532
161.06063348416387
155.85791855203715
153.48868778280638
154.3212669683267
149.41900452488778
145.84886877828143
149.01538461538553
149.1710407239828
145.19457013574748
140.70045248868863
155.2886877828064
77.97737556561134
90.72669683257975
133.9221719457022
134.65791855203702
157.0190045248878
151.72398190045342
144.2470588235303
148.25882352941267
147.37194570135836
146.40542986425427
151.87511312217288
151.37375565610952
151.6506787330326
159.16380090497833
163.20995475113222
167.60633484162997
120.26968325791927
111.56651583710473
35.248868778280766
40.99366515837129
47.466063348416576
50.29864253393696
47.12669683257947
33.54389140271514
127.50678733031751
94.59819004524945
188.05520361991063
162.81990950226344
164.56742081448064
163.9131221719467
159.78733031674307
164.96923076923179
165.44615384615486
163.79457013574762
170.49502262443542
171.3619909502273
167.99728506787434
171.91402714932232
167.85158371040825
164.4868778280553
167.36018099547613
164.12488687782906
157.99004524886973
162.5837104072408
161.23167420814576
157.1565610859738
160.0597285067883
159.88506787330414
160.3466063348426
167.39366515837204
168.38099547511416
165.40452488687885
164.42262443439012
163.82714932126797
160.15113122172045
162.23529411764804
156.77647058823624
153.124886877829
157.4751131221729
158.29683257918649
152.1610859728516
163.59547511312317
78.52036199095072
72.469683257919
143.88506787330402
128.589140271494
160.7701357466073
163.98733031674308
158.9647058823539
156.02714932126793
160.3782805429874
158.55565610859827
156.93122171945797
163.4941176470598
164.38190045248967
128.857918552037
112.05972850678802
97.18099547511372
100.74117647058885
109.02081447963867
61.209954751131605
44.171040723982166
50.00633484162927
54.985520361991284
57.561085972851025
52.1502262443442
62.15113122171985
110.38461538461604
100.8135746606341
99.73936651583772
75.72126696832626
139.8144796380099
162.3782805429874
127.7095022624442
92.85610859728564
99.51764705882414
95.44162895927658
95.07511312217252
101.07782805429925
97.01357466063408
94.71402714932185
97.59366515837162
126.47692307692382
146.92398190045338
170.84253393665261
165.27692307692408
167.05701357466165
165.42443438914128
162.04886877828153
166.75927601810056
166.2452488687793
166.42805429864353
172.05520361991057
174.10769230769336
172.1321266968336
170.9511312217205
169.03891402715035
164.78552036199196
166.558371040725
162.2968325791865
158.6226244343901
162.73031674208244
159.39638009049872
155.43257918552132
152.81447963800997
80.34117647058874
107.03529411764771
92.87058823529469
141.94298642534025
144.9303167420823
143.5837104072407
179.89411764705991
157.1701357466073
161.7221719457023
160.85520361991047
158.3076923076933
141.67330316742166
85.15837104072449
84.61719457013626
85.9773755656114
94.92941176470646
96.76380090497797
101.38371040724044
116.31312217194642
77.0434389140276
46.342081447964084
50.296832579185825
53.74389140271525
51.40995475113154
67.08325791855245
112.83619909502332
101.9085972850685
97.74751131221778
91.24705882352997
88.91674208144852
92.2696832579191
88.7194570135752
89.4778280542992
95.15746606334899
95.41719457013633
93.94570135746665
98.81900452488748
94.29592760181053
92.35475113122229
95.62714932126755
90.82352941176526
83.42714932126748
185.19366515837214
161.66877828054396
166.56470588235396
164.33484162896028
159.8959276018109
163.23891402715032
165.3837104072408
165.3393665158381
171.89411764705986
170.36470588235397
165.07601809954852
164.70588235294218
168.0904977375576
160.83800904977474
161.2723981900462
156.41447963801002
154.5746606334851
159.8334841628969
158.67873303167516
142.30045248868865
133.94660633484244
126.57285067873379
105.91221719457079
137.09502262443522
151.54298642534027
128.27692307692388
160.77647058823626
157.09954751131318
153.40180995475208
156.82895927601905
156.46063348416385
154.4823529411774
160.27963800905073
92.61266968325849
92.85520361991007
84.54570135746658
94.8968325791861
98.87873303167481
106.20995475113187
121.46787330316815
81.16199095022674
48.35746606334871
52.81990950226276
52.951131221719784
47.58552036199125
119.35927601810027
103.53212669683322
94.30497737556618
92.94117647058879
87.78823529411818
84.7529411764711
120.37375565610932
88.26334841629013
87.35384615384669
93.92850678733087
90.30769230769286
90.19638009049828
96.22171945701415
91.18190045248924
89.11764705882408
92.14298642533993
86.62081447963854
107.19728506787396
165.2868778280553
159.53212669683356
164.1239819004535
160.8090497737566
158.09321266968422
162.80904977375664
161.3393665158381
160.6126696832589
166.89049773755755
170.54027149321368
166.83800904977477
165.47330316742182
162.1339366515847
159.17647058823627
161.75384615384712
157.1954751131231
152.30769230769323
157.38190045248965
156.70045248868874
154.02352941176562
151.81447963800997
129.95113122172023
69.83981900452531
76.28778280543034
79.8126696832584
132.2552036199103
107.01900452488755
117.20995475113192
129.75475113122252
131.89140271493292
116.13574660633554
107.74117647058888
74.82352941176516
110.35565610859796
79.18190045248917
79.35384615384663
85.49592760181046
87.1583710407245
90.79728506787386
104.35203619909565
109.58371040724049
115.95656108597356
102.95294117647121
46.88868778280572
49.552036199095326
43.24796380090524
140.57918552036284
112.67149321267038
104.33846153846217
95.57466063348474
90.46877828054355
91.74751131221774
87.29683257918605
85.77737556561138
91.94751131221774
90.71764705882408
89.64524886877882
94.9040723981906
93.00361990950282
93.95565610859786
97.2235294117653
93.70678733031731
91.25520361991008
93.07963800905034
90.82081447963856
86.71583710407293
88.192760180996
117.95475113122242
139.6325791855212
132.00452488687864
159.61085972850776
162.93665158371138
159.59638009049868
156.904072398191
164.25610859728607
166.5402714932137
182.52398190045358
145.8407239819013
148.83529411764795
160.53393665158467
164.82533936651686
154.44162895927695
145.85067873303257
156.8036199095032
155.5348416289602
151.51764705882445
156.55746606334935
154.44977375565705
143.56289592760268
148.11402714932217
82.49683257918603
77.68868778280591
89.14389140271548
137.49411764705965
155.56108597285163
75.53031674208191
173.7303167420825
151.27873303167513
154.87692307692402
153.81719457013668
151.75656108597377
134.23257918552116
112.9330316742088
76.49411764705928
77.57647058823576
85.0714932126702
86.49321266968379
90.16289592760236
102.86877828054361
109.56470588235362
116.57285067873374
103.50678733031737
46.59004524886906
48.87420814479668
70.67963800905022
120.93212669683331
109.9411764705889
101.11674208144858
91.24162895927657
86.20542986425392
86.54932126696885
84.12036199095074
118.70859728506859
87.17556561086025
86.96289592760235
85.98190045248921
91.23167420814534
89.04796380090552
88.22443438914081
92.57737556561142
88.30950226244397
84.44434389140324
86.14660633484215
117.25339366515908
162.4280542986435
159.41176470588331
154.80814479638104
158.6307692307702
157.37013574660727
154.3221719457023
158.86063348416388
156.31312217194665
154.84343891402807
161.67149321267067
164.38009049773854
162.97737556561185
166.737556561087
159.5674208144806
155.13393665158466
161.79547511312316
155.8407239819014
149.78280542986516
152.20000000000093
151.44796380090588
149.35384615384706
153.276923076924
149.27782805429956
137.03891402715016
112.06425339366585
99.83076923076982
81.2470588235299
124.93665158371118
146.5366515837113
142.8778280542995
155.42081447963895
150.44886877828145
147.02171945701448
151.4036199095032
150.1366515837113
148.97918552036288
155.9773755656118
113.45610859728575
77.51221719457061
79.29411764705931
92.56108597285123
98.66425339366577
104.6090497737563
118.40814479638081
120.88325791855277
53.611764705882685
42.22986425339393
142.71855203619995
115.4443438914034
105.03710407239882
92.91674208144853
86.16832579185572
86.30769230769283
81.83981900452538
106.11493212669748
68.3819004524891
84.67420814479689
85.05158371040775
89.43438914027203
88.16289592760235
87.29683257918606
90.76651583710462
85.92579185520414
82.85067873303217
123.61085972850755
125.86606334841706
162.35746606334942
158.145701357467
153.51583710407334
157.00904977375663
156.63981900452583
153.79004524886972
157.79095022624531
154.9167420814489
152.64705882353036
157.9095022624444
158.78280542986522
158.82624434389237
165.44886877828154
165.13031674208247
161.41085972850777
160.47239819004622
162.44977375565708
156.09773755656204
158.03348416289688
155.50045248868872
152.0742081447973
157.29411764705978
154.81266968325886
152.88325791855297
159.76108597285167
119.70859728506862
120.26606334841702
99.2923076923083
101.19728506787393
113.7601809954758
156.28506787330411
71.12217194570178
80.70226244343941
77.65610859728554
83.93031674208196
81.95927601810004
81.21719457013624
85.74570135746657
85.67058823529463
88.20180995475167
97.74117647058883
99.61176470588296
105.93755656108661
121.35565610859803
85.413574660634
51.657013574660944
56.41628959276053
58.839819004525246
57.0407239819008
74.00271493212716
121.14389140271567
110.90407239819072
107.3981900452495
101.0371040723988
99.67058823529473
105.09411764705945
101.83800904977437
102.72579185520425
108.08235294117712
107.24343891402779
108.00000000000065
112.09502262443505
107.88144796380158
107.72488687782872
110.69864253393732
105.36742081448028
102.30859728506849
104.55927601810018
100.55656108597346
98.92307692307753
101.58823529411826
98.07239819004585
95.52941176470645
99.76923076923138
97.38280542986485
96.61900452488746
102.17375565610921
102.85339366515899
103.41085972850742
110.46153846153913
105.96742081448028
99.74570135746669
106.35384615384679
99.73393665158432
96.15837104072457
97.98552036199153
95.16199095022682
93.78552036199153
97.86244343891461
96.48144796380149
97.29864253393724
93.1674208144802
94.79728506787389
110.50497737556628
89.11855203619963
128.20452488687863
120.85248868778355
106.02262443438977
99.3131221719463
97.7393665158377
101.82262443438975
98.09683257918611
97.79819004524947
102.4769230769237
102.4108597285074
103.74208144796444
110.0751131221726
111.4651583710414
118.93936651583783
135.947511312218
37.06696832579209
59.735746606335205
64.12669683257958
67.16108597285108
65.82714932126736
52.37556561086005
146.2968325791864
117.73031674208218
113.43710407239885
106.24977375565676
104.7619909502269
105.42805429864318
102.51131221719518
102.31040723981963
108.96561085972917
106.70316742081513
106.27782805429929
109.0434389140278
107.20271493212735
106.4090497737563
109.68778280543053
103.05158371040787
101.92488687782867
102.46244343891465
97.39909502262503
96.21990950226304
96.4099547511318
92.20000000000056
89.74841628959331
93.31674208144852
89.47963800905032
87.61900452488742
89.9484162895933
88.15203619909556
88.9538461538467
97.226244343892
95.02352941176528
93.69954751131279
90.07873303167476
89.27873303167476
88.39547511312271
87.17647058823582
81.2235294117652
78.44705882352989
83.74298642533988
80.31402714932176
77.3809954751136
81.96832579185569
78.70407239819053
66.61176470588276
96.30497737556618
95.36742081448023
75.15113122171991
122.86968325791929
150.18280542986517
82.92126696832631
80.63981900452538
76.6570135746611
75.24886877828101
79.29864253393713
77.75113122171993
75.9493212669688
80.32398190045296
79.2470588235299
81.44524886877878
89.35022624434444
90.73936651583766
94.36380090497795
109.20000000000064
113.26515837104141
118.96380090497811
128.0868778280551
126.97556561086051
125.89864253393742
125.10588235294195
110.73755656108665
99.57194570135808
93.13936651583765
85.46968325791907
78.1683257918557
105.12036199095087
95.11493212669741
167.61176470588336
97.97828054298702
100.87782805429927
81.21085972850729
87.10045248868832
84.22624434389192
107.590950226245
77.89502262443487
124.62533936651661
161.60361990950324
156.70316742081542
151.60452488687875
154.5429864253403
151.66334841629052
146.61719457013663
149.46153846153936
146.5683257918561
144.07601809954838
148.25339366515928
149.96923076923167
148.75384615384706
153.50678733031768
151.7511312217204
143.6307692307701
147.88506787330408
145.2995475113131
138.50497737556645
139.50588235294202
137.4669683257927
134.35384615384697
138.15746606334926
136.3321266968334
124.41176470588312
156.2117647058833
88.54932126696887
102.01990950226306
114.94389140271564
137.61719457013658
138.77104072398276
138.23348416289676
132.568325791856
130.85972850678814
136.00542986425424
134.3583710407248
132.99638009049855
137.00633484162978
138.07511312217278
138.93393665158456
146.36923076923165
149.6027149321276
154.54208144796473
169.89140271493315
80.19276018099596
102.33755656108659
105.20723981900517
115.08325791855275
110.94932126696901
105.5276018099554
99.71493212669743
150.40904977375658
155.90678733031768
146.4389140271502
141.36923076923165
143.8371040723991
140.9438914027158
138.77647058823615
142.44977375565696
144.12217194570223
143.22352941176558
147.62262443439005
146.66968325791947
144.09773755656195
147.45339366515927
144.73303167420903
141.1303167420823
142.03167420814566
138.21357466063432
135.9583710407248
138.34117647058906
135.6769230769239
132.32036199095103
133.968325791856
134.23529411764787
131.0226244343899
132.93031674208225
132.2081447963809
132.12217194570218
139.9230769230778
141.3095022624443
138.92850678733117
140.36108597285153
134.47420814479722
133.66425339366597
136.1031674208153
128.81357466063426
125.48144796380167
129.34841628959353
128.0497737556569
128.17737556561164
130.0262443438922
121.11855203619984
94.55565610859789
136.257918552037
132.14208144796459
100.71312217194631
133.7004524886886
133.01176470588317
129.2361990950234
131.95022624434466
129.31764705882432
127.09683257918628
130.97647058823608
131.8633484162904
131.18552036199173
136.19638009049856
138.21719457013657
139.7782805429873
149.46425339366607
157.86606334841724
181.0443438914038
90.7755656108603
105.26063348416352
108.68235294117713
111.4099547511319
114.71493212669753
104.03981900452553
93.84977375565668
163.45339366515935
151.34660633484253
150.2588235294127
143.64253393665246
140.51131221719544
145.0542986425348
144.78009049773843
142.31131221719545
146.50950226244433
147.2841628959285
144.83619909502352
150.72579185520453
150.2343891402724
146.6579185520371
150.40180995475205
148.81900452488776
144.62986425339454
146.3049773755665
143.03800904977464
139.37375565610944
142.05339366515923
141.21085972850764
137.64977375565695
139.9276018099556
138.88144796380175
136.88416289592843
142.22986425339454
140.7719457013583
140.38914027149406
146.54389140271581
149.90135746606424
147.21447963800995
148.5131221719466
143.38009049773842
142.49592760181082
147.58733031674296
141.78190045248954
137.11493212669765
139.3846153846162
138.36742081448048
137.82624434389226
142.8389140271502
135.46696832579266
134.61990950226325
88.63891402714987
96.35203619909561
142.11945701357553
117.94751131221791
146.89321266968415
142.54751131221806
145.95475113122262
142.41719457013662
138.92036199095105
142.66606334841714
142.0886877828063
142.04796380090585
147.180995475114
146.99366515837193
146.43257918552126
155.12307692307786
159.04253393665255
128.35927601810033
92.97375565610918
106.40090497737621
111.29140271493281
135.48778280543067
36.51312217194593
39.90859728506811
109.93212669683325
114.20723981900522
100.80633484162958
86.93212669683311
182.65429864253505
158.0090497737566
160.50497737556657
159.74841628959373
156.80090497737655
161.28054298642633
162.3891402714942
160.81900452488787
166.36018099547613
167.18823529411867
163.98461538461638
168.37737556561189
165.77828054298743
162.61900452488786
165.65520361991054
160.41085972850777
154.5828054298652
158.78914027149418
156.6877828054308
153.6325791855213
156.77104072398282
154.59276018099638
151.3846153846163
157.67601809954846
158.59004524886973
158.26696832579282
164.54389140271593
164.10045248868877
157.64524886877925
160.93484162896027
160.9538461538471
153.2117647058833
154.66696832579277
152.09230769230862
149.39457013574753
155.08597285067967
152.50135746606423
138.5565610859737
152.1004524886887
96.73484162895987
75.49049773755704
153.12850678733125
142.3411764705891
157.08054298642628
158.50859728506884
152.4371040723991
149.560180995476
154.12126696832672
154.25882352941272
151.69954751131314
157.81447963801
158.1303167420824
156.58733031674302
82.19457013574711
94.10769230769287
98.0208144796386
105.18552036199159
120.07149321267039
44.73212669683286
48.80452488687812
52.40361990950258
52.15022624434421
47.42081447963831
121.19095022624508
103.42081447963864
92.29864253393723
90.83710407239874
121.84705882353015
167.99819004524988
167.97918552036302
110.57194570135815
149.37556561086063
93.46334841629013
92.05610859728563
92.4570135746612
94.90045248868834
90.76380090497793
89.37918552036254
92.28778280543042
69.79728506787373
107.81809954751199
181.3493212669694
160.10769230769327
163.41176470588334
162.2027149321277
157.8380090497747
162.10045248868877
160.50588235294214
160.44705882353037
167.7719457013585
169.79638009049876
166.8027149321277
169.19547511312322
163.94932126696932
128.13303167420895
164.16742081448064
158.69230769230865
154.11855203620001
158.93936651583806
158.5782805429874
155.76651583710503
148.45158371040813
87.97918552036253
119.7375565610867
112.81900452488756
119.11493212669754
157.87963800905072
143.74208144796467
75.62624434389187
156.68144796380184
160.84615384615483
158.16199095022722
120.65429864253468
79.59004524886927
83.8027149321272
83.53393665158421
85.57828054298695
95.60633484162952
99.96742081448025
108.41809954751199
125.4832579185528
25.892307692307856
50.088687782805735
54.72307692307726
54.297737556561415
49.267873303167725
118.45610859728578
104.10497737556625
97.0000000000006
97.7628959276024
91.9040723981906
90.08416289592816
93.72669683257976
93.89411764705939
92.99004524886935
99.34298642533997
96.73122171945761
95.34027149321325
101.30950226244403
97.1737556561092
93.27511312217251
95.12760180995532
91.00542986425395
89.22443438914081
93.63257918552094
137.6144796380099
140.90316742081532
165.15022624434488
162.97466063348514
167.33484162896028
165.45429864253495
164.33484162896028
171.32760180995578
139.1230769230778
170.80995475113227
172.6932126696843
166.51131221719558
163.6235294117657
168.82533936651686
164.11040723982
157.9411764705892
163.62171945701454
162.32669683258018
160.02895927601907
156.73031674208238
76.07058823529458
127.03891402715008
82.51764705882402
147.11945701357553
161.30316742081544
85.18009049773806
93.28506787330372
125.84705882353018
162.33484162896025
126.89502262443516
123.87149321267044
80.71402714932177
86.81809954751184
88.59728506787384
91.11493212669738
102.15203619909565
106.65158371040789
133.72579185520442
39.664253393665405
51.843438914027466
56.23981900452523
53.53122171945734
46.888687782805704
109.88778280543053
111.12850678733099
100.4425339366522
94.46334841629017
95.42714932126754
93.15837104072455
93.43348416289649
97.93936651583769
95.44977375565668
95.63891402714991
101.6135746606341
97.13303167420872
96.12669683257977
100.07511312217254
95.11583710407298
93.45158371040782
95.96108597285127
91.18461538461594
149.66244343891492
148.28416289592852
164.5954751131232
168.40542986425442
165.95927601810055
161.49502262443536
165.31131221719556
168.44434389140375
168.78461538461642
174.233484162897
173.87873303167527
167.80452488687885
169.63619909502364
170.96289592760286
163.69683257918652
164.85882352941277
160.1194570135756
157.53936651583805
163.27239819004623
160.87873303167518
151.24343891402808
171.03619909502365
51.43076923076955
107.27692307692374
110.77375565610927
140.80452488687868
96.40814479638068
166.26425339366617
159.50497737556657
156.48597285067967
160.4389140271503
159.20904977375662
158.4434389140281
102.55927601810018
106.0904977375572
86.30316742081502
89.03891402714987
102.12398190045312
108.55203619909568
113.92760180995543
42.83438914027175
49.742081447964104
54.5746606334845
55.72760180995509
51.33846153846185
81.66425339366566
114.05520361991019
101.27873303167483
94.44072398190102
93.87963800905035
124.25067873303242
114.24886877828125
115.47058823529481
82.70497737556612
117.46153846153918
96.39366515837162
93.86968325791912
93.49230769230826
98.1628959276024
94.87963800905035
92.57737556561142
94.05429864253452
108.9547511312224
109.77647058823598
169.11674208144896
164.1203619909512
167.32488687782907
166.29049773755756
162.02443438914128
165.70769230769332
163.71493212669782
160.39819004524983
164.4316742081458
168.42081447963903
166.3031674208155
172.3746606334852
172.62986425339471
167.18280542986528
167.7529411764716
168.45972850678834
161.4054298642544
162.43710407239917
159.4751131221729
156.60271493212764
159.93665158371138
158.91764705882449
148.90859728506877
171.4190045248879
76.6886877828059
112.06153846153913
94.0072398190051
134.57737556561167
162.54027149321365
165.44434389140372
158.39366515837202
154.87330316742174
158.8063348416299
159.91674208144894
157.49321266968423
167.17556561086073
134.17918552036278
85.3556561085978
87.56651583710462
99.69411764705943
104.74027149321333
111.65791855203689
100.56018099547572
47.49140271493241
53.17828054298675
55.777375565611194
52.98914027149353
28.897737556561268
125.94389140271569
106.63257918552101
96.8705882352947
94.63800904977433
89.99004524886934
145.7647058823538
103.33574660633549
131.6877828054307
88.93665158371095
94.51312217194626
94.22262443438972
92.47149321267025
96.9312217194576
92.97104072398247
91.48597285067929
96.95113122172005
91.40995475113178
88.63076923076977
166.89140271493312
163.38190045248967
168.17918552036298
166.32217194570237
160.3656108597295
163.95927601810052
161.5565610859738
159.2307692307702
163.96380090497834
163.6579185520372
164.63891402715032
169.59728506787434
170.52669683258023
168.91764705882457
168.90407239819106
164.46877828054397
161.49230769230866
163.83529411764803
160.70678733031772
155.40814479638104
160.33484162896025
157.3276018099557
156.4669683257928
152.27239819004618
108.05158371040788
130.3728506787338
79.48868778280593
142.50588235294202
153.97466063348512
167.7927601809965
160.43981900452587
155.0904977375575
160.22895927601908
158.83438914027246
157.44162895927698
161.60904977375665
159.80271493212766
92.12760180995531
83.94660633484213
93.8144796380096
94.97194570135804
99.91493212669744
115.70226244343961
111.60814479638077
44.321266968326064
49.428054298642834
53.667873303167745
53.220814479638335
42.436199095022886
135.99366515837187
108.47149321267034
102.0371040723988
96.00361990950285
91.72850678733087
94.65067873303224
92.46877828054355
90.62624434389195
97.48868778280601
94.95837104072456
94.867873303168
100.69592760181055
96.2235294117653
96.05972850678792
98.8552036199101
93.9674208144802
91.73122171945758
94.59185520362048
90.14932126696888
171.29954751131325
167.70407239819104
162.9393665158381
166.63076923077023
167.2081447963811
163.26787330316841
166.63257918552137
165.10407239819105
165.79276018099648
172.92579185520466
174.3990950226255
169.75656108597389
172.97285067873406
166.5393665158381
164.8099547511322
134.15294117647142
164.51131221719558
158.87239819004623
162.92036199095122
162.60633484162992
160.5963800904987
165.10678733031773
152.9719457013584
85.32760180995527
120.914027149322
117.72126696832652
123.46425339366591
162.19366515837203
72.77828054298688
85.29230769230821
128.56651583710487
153.83348416289687
148.80271493212757
142.67330316742166
68.10407239819047
83.96018099547562
83.78371040724033
91.14660633484219
91.14660633484219
93.71674208144853
106.77285067873368
110.55294117647125
114.25701357466131
41.20180995475138
49.655203619909805
53.713122171946026
55.112217194570476
52.215384615384934
27.303167420814653
126.43619909502338
108.16651583710473
99.24343891402776
98.25791855203678
93.1963800904983
90.99185520362047
105.03800904977439
134.6633484162904
91.05429864253449
97.97556561086031
96.62805429864312
96.83619909502322
101.34389140271554
98.08054298642594
96.60361990950284
101.20452488687843
96.23981900452547
93.19276018099605
94.76108597285125
125.04253393665235
171.80542986425445
170.49321266968428
165.13846153846254
168.71583710407342
165.94389140271593
162.81447963801003
168.1873303167431
169.26244343891503
168.2850678733042
174.25339366515942
176.86696832579293
171.67873303167525
169.93212669683362
172.41357466063454
163.79457013574762
166.33846153846255
161.75203619909598
159.39366515837202
163.28597285067974
161.7176470588245
147.93393665158462
141.46515837104158
105.2751131221726
82.18009049773805
108.2253393665165
156.87782805429958
122.4063348416297
165.22352941176572
160.26063348416386
156.77918552036294
162.50588235294217
162.50678733031774
159.75294117647155
119.0561085972858
89.1746606334847
91.45610859728562
95.95837104072457
108.62805429864319
113.49592760181065
48.009954751131524
48.65339366515867
57.20814479638044
58.73484162895963
55.585520361991286
47.23619909502291
75.81809954751176
110.36832579185587
99.38099547511374
93.12488687782863
95.44253393665217
110.43167420814548
89.66153846153901
97.05429864253452
94.4153846153852
94.01628959276076
101.93122171945764
98.14027149321326
96.60633484162955
99.52579185520422
95.81628959276077
93.53484162895985
97.31493212669741
74.3122171945706
173.53122171945807
168.11764705882456
164.42714932126796
167.86425339366616
165.90588235294217
162.01628959276118
165.70135746606434
166.7239819004535
167.71764705882455
172.05429864253497
173.62805429864358
170.20995475113227
169.88959276018204
170.5113122171956
163.68054298642633
164.60361990950327
160.09049773755754
157.4959276018109
163.90859728506885
161.13212669683355
145.83800904977466
120.35927601810029
123.93303167420889
116.6398190045256
137.44434389140355
170.4506787330327
159.28778280543082
161.41176470588331
159.52126696832676
156.79276018099642
161.64253393665254
160.4886877828064
160.37375565610958
109.22533936651652
91.41085972850735
92.65882352941233
98.39819004524946
114.48868778280611
40.62171945701383
45.65882352941205
52.45520361990981
58.087782805430216
57.85610859728542
47.98461538461568
80.82443438914078
108.53303167420881
102.57375565610923
94.31764705882411
113.28506787330386
97.16018099547571
141.0932126696841
179.11674208144905
78.60000000000048
94.86063348416347
94.60814479638067
98.9393665158377
94.96923076923134
94.05339366515895
107.20000000000066
134.1900452488696
147.2371040723991
186.8162895927613
164.4705882352951
168.5819004524897
166.01176470588337
160.7837104072408
163.5945701357476
164.3321266968336
160.73755656108696
162.61357466063447
165.13393665158472
165.31493212669784
172.01809954751235
173.60542986425446
165.32850678733132
167.82081447963904
166.71764705882455
161.18280542986525
162.46334841629056
160.81357466063446
156.61900452488783
161.82533936651683
159.82624434389237
171.26515837104176
69.99638009049816
135.19638009049856
133.98099547511396
134.90407239819086
171.0244343891413
161.32398190045348
160.72669683258016
159.05429864253492
157.0859728506797
161.48144796380188
160.57828054298741
159.11674208144893
164.30950226244443
134.2244343891411
99.4579185520368
92.73393665158429
105.86153846153908
111.78280542986492
79.0045248868783
44.606334841629234
51.41719457013606
54.11764705882386
52.2452488687786
45.37647058823557
76.5411764705887
111.08054298642601
99.46515837104133
94.05067873303226
136.38371040724064
137.7194570135755
149.2235294117656
192.0515837104084
188.77647058823644
117.755656108598
82.37828054298693
97.54570135746667
95.98371040724041
98.77828054298703
95.06425339366574
89.21357466063404
159.10045248868875
167.48687782805533
170.24886877828158
168.9846153846164
164.3972850678743
167.4533936651594
165.34932126696933
162.12217194570235
169.7638009049784
172.31131221719562
170.01719457013678
175.35837104072505
170.78914027149423
164.9239819004535
170.84705882353046
166.50950226244444
159.96108597285166
161.50407239819103
161.86877828054398
159.61628959276115
164.72398190045348
151.1900452488697
132.56380090497817
102.71493212669745
99.20995475113185
101.9665158371047
154.03619909502356
167.56289592760282
160.8542986425349
163.32760180995575
160.60904977375662
157.05067873303264
161.75565610859826
163.2968325791865
161.4705882352951
170.80633484163
108.44705882353006
91.819909502263
96.4389140271499
111.22262443438981
72.50135746606378
40.05882352941201
47.94117647058853
54.819004524887205
58.42986425339402
54.03800904977408
45.816289592760455
73.84434389140316
110.6307692307699
98.2081447963807
94.11221719457072
171.54389140271596
169.40361990950328
173.9330316742092
143.79909502262532
137.11221719457097
94.30045248868836
98.75565610859788
97.12488687782864
95.47511312217253
100.10769230769293
95.00452488687841
91.38733031674263
172.28054298642638
168.81447963801008
172.16289592760285
168.4425339366526
164.45701357466163
168.6425339366526
168.4877828054309
163.33031674208246
166.49411764705982
165.70407239819107
166.51221719457115
174.24977375565717
175.13122171945807
170.79909502262547
173.647963800906
169.16018099547614
167.12850678733133
169.97556561086077
163.89954751131322
158.24796380090595
163.31945701357566
162.6705882352951
158.75022624434484
164.44615384615486
148.72036199095112
55.07692307692343
116.62262443438985
86.24072398190097
140.46606334841712
160.79185520362088
169.75746606334943
161.92398190045347
162.31402714932224
159.64524886877925
157.2597285067883
163.04615384615485
162.979185520363
160.5420814479648
166.0733031674218
125.57918552036274
89.62352941176525
93.21719457013631
103.8904977375572
108.35656108597351
112.33846153846221
41.02262443438939
51.52850678733063
55.70678733031708
58.390045248869136
57.02624434389175
51.06425339366547
63.08687782805469
111.64977375565678
100.58371040724043
98.15022624434448
109.86515837104139
140.07692307692395
164.39366515837202
142.03529411764794
154.24343891402808
99.29230769230828
96.48144796380149
94.87420814479695
99.19004524886938
94.37737556561143
115.22624434389212
108.31402714932194
168.76289592760284
171.4533936651594
168.66334841629063
165.03800904977476
168.889592760182
166.18823529411867
161.53574660633583
164.78280542986525
166.02805429864355
163.04796380090596
170.6325791855214
170.9457013574671
169.227149321268
175.39638009049878
170.09773755656212
163.7266968325802
169.59728506787434
163.51221719457112
158.4678733031684
161.39185520362088
160.17918552036298
156.3067873303177
162.66153846153946
152.28144796380184
157.81357466063443
77.71040723981947
95.92941176470647
122.61357466063424
148.01990950226335
134.5800904977384
159.71131221719554
159.95294117647154
158.6986425339376
156.152036199096
161.19276018099646
159.68959276018197
157.5122171945711
166.8081447963811
69.1665158371045
87.13665158371094
88.9484162895933
100.00995475113183
103.75475113122236
130.11493212669762
37.64434389140295
48.202714932126995
53.04253393665191
54.65429864253427
53.60000000000033
47.44072398190075
118.0190045248876
103.3719457013581
94.74389140271552
97.21990950226304
91.37194570135802
89.75475113122226
128.6208144796388
91.52126696832634
91.69321266968382
98.67511312217253
94.78461538461596
93.4280542986431
97.66334841629019
94.81990950226302
91.90135746606391
95.38733031674265
89.392760180996
146.070588235295
167.97285067873406
163.50135746606435
167.15113122172048
163.06515837104172
159.93665158371138
163.71855203620007
163.91674208144894
163.2027149321277
169.39457013574764
172.51855203620013
167.0009049773766
171.4932126696843
165.86696832579287
161.6606334841639
164.8343891402725
160.29049773755753
157.45791855203717
161.81719457013673
159.51945701357565
156.66515837104168
157.2932126696842
126.54298642534013
91.20814479638065
144.1891402714941
107.32850678733097
135.68959276018182
107.45339366515904
182.4651583710418
158.20723981900548
161.26334841629057
160.69502262443535
158.58190045248966
162.29773755656205
153.7719457013584
115.16108597285137
83.4633484162901
93.43348416289648
94.51855203619967
99.78823529411827
112.65791855203686
108.4778280542993
42.790045248869035
48.68778280543016
54.63710407239852
53.28506787330349
48.71583710407269
83.33303167420866
112.21176470588304
104.95384615384678
97.40995475113182
94.01719457013633
97.73846153846213
93.94027149321325
91.72036199095079
97.0914027149327
95.63167420814537
95.90407239819062
101.31131221719517
97.86606334841689
95.38461538461597
101.77194570135808
98.81628959276077
96.41085972850738
97.25339366515895
92.75384615384672
87.59366515837158
123.36289592760257
132.4524886877836
170.83438914027252
168.31402714932227
165.10045248868877
169.14298642534038
171.268778280544
151.9484162895937
178.4886877828065
177.92307692307799
170.99457013574767
170.64434389140376
170.46334841629061
163.15927601810054
166.2054298642544
161.47873303167518
158.88054298642632
163.64253393665257
162.58823529411865
155.03348416289688
175.74660633484268
67.83529411764748
91.34389140271549
107.70407239819069
140.84434389140358
146.7656108597294
170.23167420814582
162.60633484162992
157.38190045248967
163.11945701357564
161.8081447963811
159.00000000000097
163.46968325791954
154.08868778280635
85.59457013574712
86.9773755656114
95.91764705882412
98.84343891402776
104.96561085972914
123.94751131221794
25.03438914027165
50.03619909502293
54.69502262443473
57.72398190045284
54.14751131221752
67.25791855203661
114.45158371040793
102.90045248868842
98.4760180995481
92.81900452488745
86.74298642533991
115.1529411764713
123.52036199095097
91.02895927601865
97.6760180995481
94.69230769230826
94.4705882352947
98.61990950226303
95.44705882353
93.69773755656166
98.05882352941236
92.21900452488744
121.90769230769303
187.89411764705994
165.72488687782908
170.69683257918655
168.15294117647161
162.88778280543085
167.17375565610962
169.35746606334945
168.7113122171956
175.12760180995582
174.23348416289699
167.05520361991051
169.65972850678835
170.92760180995577
162.4343891402725
163.10950226244444
160.40090497737654
158.3782805429874
164.1891402714942
159.26153846153943
167.77647058823632
66.55113122171987
127.98190045248946
99.35927601810016
137.1981900452497
138.81447963800989
160.8733031674218
161.75022624434487
160.9592760181005
156.95837104072496
161.84524886877924
160.54751131221818
111.45610859728575
81.76199095022675
91.41266968325847
92.04253393665215
96.20904977375625
111.78642533936718
76.1963800904982
44.033484162896194
51.334841628959595
57.25701357466098
60.34751131221756
55.78914027149355
45.40361990950254
105.90045248868842
105.87330316742144
96.79095022624493
92.31312217194626
95.08687782805487
91.96651583710464
91.30226244343947
99.09502262443499
95.77285067873362
95.89683257918611
100.78099547511373
95.70497737556619
94.76470588235352
97.66515837104131
91.58914027149378
89.25339366515891
167.2180995475123
163.90859728506888
168.28054298642635
166.43981900452587
163.60452488687883
170.12669683258022
172.82533936651689
172.2380090497748
177.0733031674219
169.8081447963811
164.40542986425442
171.5457013574671
166.38552036199195
159.22805429864349
161.09592760181093
161.00090497737654
159.29592760181092
161.40271493212765
150.14027149321362
89.09140271493268
80.01900452488736
114.46425339366587
136.4904977375574
107.45520361991018
181.62533936651693
155.64705882353036
162.21990950226342
160.16380090497836
104.30859728506853
142.25248868778365
85.16742081448015
84.74208144796432
87.22533936651638
98.74027149321327
102.98642533936714
110.25248868778348
101.53755656108657
49.10135746606365
53.172850678733354
56.57466063348451
55.10135746606369
48.65520361990981
120.33574660633558
104.58552036199158
97.12669683257978
96.45791855203677
92.86787330316798
93.30678733031732
96.68959276018158
94.19819004524945
93.00361990950283
100.87058823529472
98.55022624434449
97.32307692307751
98.10588235294176
93.76923076923134
92.58280542986482
95.25429864253451
90.82352941176526
145.10950226244432
168.27330316742183
163.9656108597295
167.6217194570146
168.14932126696937
162.8361990950236
167.64705882353044
172.07511312217298
169.60452488687886
139.05882352941262
173.62624434389244
164.76380090497838
170.21538461538566
169.55475113122276
161.9049773755666
163.220814479639
160.47511312217293
158.50859728506884
165.20452488687886
161.22443438914124
167.1764705882363
72.7882352941181
118.59276018099621
132.23529411764787
138.9565610859737
138.705882352942
160.55294117647156
162.4877828054308
160.62171945701456
158.44615384615483
136.88235294117732
169.7239819004535
100.72579185520425
81.3475113122177
89.73574660633538
92.36561085972906
96.31764705882412
110.92126696832646
118.25791855203691
51.37285067873335
46.465158371041014
51.90859728506819
52.90769230769263
43.57375565610887
138.12488687782889
108.60814479638076
103.57104072398253
96.57918552036259
92.77918552036256
96.89049773755715
93.16108597285125
92.59819004524942
98.65791855203679
97.01628959276078
96.06425339366575
100.80090497737618
97.10588235294176
95.47782805429922
100.56470588235354
95.41176470588293
91.4307692307698
94.19095022624491
89.91945701357521
110.65610859728575
168.23891402715034
162.4968325791865
168.0588235294128
166.55656108597387
165.7004524886888
173.00995475113228
172.8352941176481
171.25520361991056
175.47963800905086
170.45701357466166
166.05610859728608
170.3239819004535
164.07239819004624
158.9647058823539
162.47149321267068
161.0941176470598
157.8651583710417
162.37104072398287
149.46515837104164
69.7592760181
120.03619909502336
110.349321266969
126.20361990950303
143.39004524886965
182.57013574660743
157.10226244343986
159.9466063348426
157.83981900452585
156.7357466063358
161.93574660633584
161.53484162896024
158.53665158371138
118.7158371040731
91.59185520362045
94.24977375565669
97.72850678733091
111.4072398190052
107.07692307692373
40.96561085972875
48.04524886877857
53.26063348416322
54.254298642534266
48.30497737556591
84.75837104072451
114.66425339366586
107.19004524886942
95.80814479638067
90.56561085972908
102.46515837104135
101.38190045248932
172.42986425339473
161.39547511312315
90.82895927601867
90.86696832579241
97.57918552036257
94.36651583710464
92.4859728506793
95.99366515837163
92.97647058823586
92.03619909502319
95.888687782806
104.30226244343956
172.04343891402817
167.50769230769333
163.83800904977474
166.61447963801004
163.58280542986523
161.14751131221817
168.39457013574764
170.97104072398292
168.74117647058927
173.1963800904988
169.01538461538564
161.52760180995574
169.14208144796484
163.52669683258017
156.9203619909512
158.56018099547606
158.78461538461636
155.47330316742176
160.7493212669693
144.5891402714941
135.86787330316824
102.1321266968332
88.9248868778286
132.67692307692386
152.04162895927695
163.4262443438924
155.39457013574756
158.01809954751226
155.3619909502272
152.704072398191
157.98552036199192
157.73212669683355
156.85248868778376
140.8723981900461
86.84705882352995
88.71945701357521
92.99366515837161
108.14932126696898
114.78009049773824
81.27330316742132
44.98733031674235
52.304977375565926
54.17104072398223
48.77194570135776
50.758371040724285
112.11131221719526
106.20995475113186
95.88144796380149
90.14751131221774
159.14660633484257
173.3194570135757
144.42443438914114
104.20000000000064
101.81719457013638
92.42081447963858
96.0805429864259
94.71674208144853
94.83981900452545
99.67149321267027
93.74751131221777
89.93665158371095
95.19819004524945
90.2669683257924
83.51040723981953
185.1511312217206
163.29230769230867
167.22352941176572
166.23891402715034
162.76561085972952
168.93212669683362
170.93574660633587
188.14117647058936
148.46696832579275
171.7674208144807
163.01538461538559
148.81085972850767
131.09140271493294
160.74570135746706
163.13755656108694
161.6805429864263
157.70769230769326
164.1176470588245
150.82714932126788
112.7547511312224
100.17466063348476
77.84977375565657
136.0923076923085
144.7411764705891
90.62895927601863
131.6941176470596
164.39366515837204
161.18914027149418
92.53122171945759
102.24434389140336
105.31131221719522
84.69049773755707
84.30135746606386
93.90316742081505
95.81357466063406
99.35475113122233
113.61447963800973
109.21357466063415
44.60090497737583
50.84162895927633
57.30045248868813
59.11402714932163
53.58642533936684
56.04705882352976
117.14208144796453
109.43800904977442
98.86787330316804
96.84705882353
100.96470588235354
97.6705882352947
96.23619909502321
101.38823529411826
100.1764705882359
100.2244343891409
105.46334841629022
101.0398190045255
99.17285067873364
103.37013574660696
99.22081447963862
96.3049773755662
98.68325791855263
93.51131221719514
90.7647058823535
95.25520361991008
90.73122171945757
124.62171945701432
160.40633484162993
146.66877828054385
92.50678733031731
100.83348416289653
98.38190045248929
152.92488687782898
172.55294117647165
135.41266968325874
91.35294117647115
167.50316742081546
162.84162895927702
168.43619909502365
136.75203619909587
129.25972850678812
161.58642533936748
107.77737556561151
86.89411764705935
113.14932126696904
120.86968325791929
152.17013574660726
92.26063348416346
91.85339366515892
86.64524886877881
84.34932126696884
86.75294117647113
83.68325791855256
83.16742081448015
89.55022624434443
89.22443438914081
88.8723981900458
96.5203619909508
98.8923076923083
105.31493212669747
120.40271493212742
79.50316742081496
46.72488687782834
52.57737556561118
58.86153846153882
58.05791855203655
48.40452488687812
120.87873303167493
111.8995475113129
107.3828054298649
98.86787330316804
95.40723981900511
96.91493212669741
96.20723981900511
95.60090497737615
101.4371040723988
98.73484162895987
98.55837104072458
104.38461538461603
101.0316742081454
99.25882352941237
102.71040723981963
96.93755656108657
95.26606334841688
98.067873303168
92.52579185520418
125.60542986425415
168.21990950226345
166.2923076923087
170.41900452488792
168.97375565610963
168.5212669683268
173.71312217194674
176.02443438914136
173.15022624434494
172.46425339366618
170.05429864253495
164.9239819004535
166.1185520362001
161.74660633484262
158.42714932126793
161.63800904977472
159.9628959276028
151.45248868778373
164.24253393665256
70.83710407239863
102.56108597285132
118.11855203619982
134.7710407239827
162.7574660633494
163.18371040724077
156.3384615384625
152.48959276018192
157.81809954751225
156.43619909502357
154.84886877828148
160.58461538461637
160.4877828054308
94.43800904977434
88.840723981901
101.04705882353002
106.93665158371107
113.33031674208212
41.78642533936677
51.56651583710439
52.33755656108629
48.733936651584
48.65972850678763
108.92669683257986
100.89411764705945
91.2597285067879
169.01447963801007
165.8470588235304
163.22171945701456
169.65972850678835
168.76380090497838
166.94117647058926
174.916742081449
143.11131221719543
126.57647058823606
145.92217194570225
187.99095022624545
164.4190045248879
168.00814479638112
166.36651583710508
161.28868778280642
164.10316742081545
160.08506787330413
156.95022624434483
161.41809954751227
159.75022624434487
159.97737556561185
165.72036199095123
167.62081447963902
165.4289592760191
165.4968325791865
162.25610859728604
157.6099547511322
158.59909502262542
153.43348416289683
150.05701357466154
153.64615384615476
151.67239819004615
141.40452488687868
159.52850678733128
98.86968325791916
112.7158371040731
127.56470588235372
144.85067873303257
154.05339366515932
154.7583710407249
148.70950226244435
146.45158371040813
150.897737556562
151.30407239819095
150.7167420814489
155.81085972850775
157.4669683257928
178.85339366515944
86.68959276018153
103.19185520362053
110.57194570135815
44.941176470588516
44.811764705882624
49.86968325791885
48.64796380090527
62.139366515837494
108.57647058823596
95.22443438914084
132.35384615384694
162.3420814479648
163.44615384615483
162.83981900452588
159.8334841628969
166.83257918552138
167.179185520363
164.50859728506887
172.9429864253404
149.06063348416382
165.30407239819107
170.29864253393768
166.44343891402815
161.69049773755756
164.4497737556571
161.4841628959286
157.09683257918647
159.71402714932222
156.2986425339376
154.78099547511408
158.82986425339462
159.84343891402813
159.8253393665168
165.6371040723992
164.93303167420913
159.59185520362087
159.5547511312227
160.91040723981996
151.9276018099557
153.076923076924
151.70678733031767
148.41176470588326
152.78642533936744
146.8524886877837
161.42081447963898
83.6579185520367
130.26877828054376
140.9303167420823
139.43167420814564
159.96651583710505
150.2687782805439
152.90678733031768
150.4687782805439
147.89864253393756
152.10678733031767
153.5719457013584
152.26968325791947
158.62895927601906
160.09864253393764
95.53755656108657
92.42986425339424
107.48959276018164
112.68687782805497
45.520361990950505
42.48778280543012
48.42533936651613
45.95022624434417
61.41357466063387
109.4126696832586
97.9076923076929
104.57104072398253
165.24434389140373
167.95475113122274
165.19638009049874
161.60090497737656
168.88687782805533
168.03348416289694
165.2180995475123
145.30135746606422
169.76742081448066
100.91312217194631
120.88868778280614
148.69864253393754
154.76380090497832
169.91040723982002
165.8950226244354
162.62714932126795
163.84434389140372
159.7357466063358
155.42171945701455
160.49230769230866
160.63438914027248
158.73393665158468
164.45067873303265
167.11945701357567
165.00271493212767
165.27692307692408
161.531221719458
158.24253393665253
160.08144796380185
156.06877828054394
152.31583710407335
156.1411764705892
155.55837104072492
144.42624434389228
133.77285067873385
92.11402714932183
137.974660633485
112.82262443438982
152.56832579185613
158.19095022624532
159.79276018099645
154.22533936651678
151.80542986425434
155.9800904977385
155.35746606334936
153.9746606334851
159.09502262443533
159.17647058823627
127.63167420814557
86.20633484162948
97.61990950226303
102.6714932126703
108.79457013574728
127.00361990950302
25.56108597285084
49.730316742081754
50.85701357466094
48.20814479638038
43.53031674208172
116.37737556561156
102.13665158371103
94.3547511312223
92.3067873303173
123.3565610859736
169.7954751131232
168.88597285067976
166.04524886877928
174.2171945701368
75.26968325791901
92.6099547511318
92.56923076923134
96.1466063348422
92.30588235294174
90.91855203619966
95.42533936651643
90.91583710407295
87.30769230769283
166.59185520362092
162.82533936651683
166.74298642534038
163.76742081448063
159.96108597285166
163.09683257918653
162.00633484162992
162.20361990950326
168.2162895927612
168.90950226244448
166.18642533936753
168.94389140271596
164.4126696832589
162.59457013574757
163.95656108597385
157.77918552036294
152.62533936651676
158.16380090497833
156.9828054298652
152.92941176470683
146.6624434389149
151.6371040723991
71.55837104072442
101.19819004524949
122.95113122172022
133.86515837104156
164.85972850678834
158.49049773755752
152.6009049773765
154.52579185520455
152.1692307692317
150.0135746606344
156.70497737556656
156.41447963801
154.57737556561182
160.1176470588245
161.7257918552046
96.94117647058883
91.11131221719512
105.06515837104135
110.2760180995482
77.96380090497786
43.66696832579212
51.00995475113153
53.18280542986457
51.88235294117679
47.43438914027178
78.10769230769279
112.06153846153913
97.48868778280602
115.38190045248939
149.9420814479647
163.67511312217295
167.69140271493316
166.24615384615484
163.88416289592863
170.03710407239925
170.93846153846255
167.54660633484264
172.66606334841734
172.20723981900557
168.65158371040826
173.24253393665265
171.14208144796487
165.90950226244445
167.9185520362001
165.60995475113222
161.19095022624532
164.59819004524988
161.19909502262541
157.99276018099644
161.21176470588333
162.42533936651682
163.7266968325802
168.51493212669786
168.69321266968427
165.99638009049875
165.47330316742182
164.70316742081548
159.02443438914125
159.241628959277
155.2325791855213
151.87601809954845
155.91040723981996
154.7067873303177
144.95565610859816
160.20723981900548
66.94479638009092
105.42081447963864
87.66968325791908
133.77194570135828
157.83257918552133
159.31131221719554
152.05248868778375
148.53665158371132
152.945701357467
152.34117647058918
151.9194570135756
156.5203619909512
156.47420814479733
156.04886877828147
164.27963800905076
132.27963800905061
104.91221719457079
100.98914027149382
119.88416289592833
19.487782805429987
43.37375565610886
48.51583710407269
49.58190045248898
42.51674208144823
95.55203619909558
104.01266968325854
95.67239819004584
167.37556561086075
161.6253393665168
165.289592760182
164.79638009049873
161.8126696832589
166.87692307692407
165.93484162896027
164.42171945701458
169.97918552036302
168.8642533936662
165.4235294117657
168.16832579185623
165.37828054298743
163.29773755656208
165.2425339366526
160.7493212669693
156.2823529411774
159.88144796380186
158.58009049773852
154.58280542986518
157.44705882353037
157.02624434389236
158.61447963801
164.73484162896025
164.02986425339466
161.34841628959373
159.64796380090596
159.51402714932223
154.88144796380183
157.79547511312313
150.88868778280633
147.8552036199104
151.94751131221813
153.78914027149415
139.76470588235378
150.34027149321355
97.94751131221778
149.29321266968415
114.7257918552043
148.43076923077012
153.49140271493306
153.7085972850688
150.95475113122262
147.6787330316751
152.7402714932136
148.85339366515927
147.65429864253485
155.38823529411857
155.1194570135756
155.31312217194665
161.94751131221815
158.6506787330326
94.98552036199152
102.46153846153908
92.85882352941232
38.838914027149556
41.06244343891428
44.64072398190072
42.48235294117673
105.87601809954816
107.01357466063412
128.47692307692387
170.1954751131232
164.98009049773853
160.12669683258017
165.47601809954853
163.72579185520462
163.41176470588334
168.78914027149423
169.48687782805533
165.27963800905079
170.34208144796486
168.40814479638112
164.99728506787432
168.85791855203723
165.13846153846254
159.28778280543085
162.88054298642635
160.70769230769326
156.36380090497832
159.27149321267063
157.61628959276115
153.56470588235388
158.54027149321365
161.57737556561185
160.0072398190055
164.97737556561185
166.26515837104174
157.7511312217204
159.35294117647155
160.483257918553
153.55384615384708
154.54660633484258
152.3846153846163
149.95113122172037
154.166515837105
151.2606334841638
140.41085972850766
152.57828054298736
115.72036199095092
104.51583710407303
124.4904977375573
160.7493212669693
151.9791855203629
154.2452488687792
150.01538461538553
147.4153846153855
151.79004524886972
152.61447963800998
150.44796380090588
156.0778280542996
155.73122171945795
157.41447963801
166.66787330316842
132.2923076923085
99.77194570135806
125.38280542986502
30.57194570135766
42.04796380090523
44.75022624434416
44.033484162896194
39.07239819004548
102.87963800905041
105.66244343891466
159.4389140271503
168.12126696832678
162.4597285067883
158.14479638009146
162.83257918552135
163.14298642534038
159.86063348416386
165.88506787330417
167.200000000001
165.0733031674218
169.93936651583815
168.22805429864354
163.51764705882454
167.6796380090508
165.04886877828153
159.9122171945711
162.48778280543087
158.7257918552046
154.8162895927611
158.83619909502357
157.4045248868788
153.73846153846247
159.53393665158467
162.78190045248968
162.03529411764805
166.90407239819106
160.29230769230867
154.96561085972945
160.3122171945711
155.14841628959368
148.5420814479647
151.9981900452498
150.92217194570227
149.03348416289683
142.5909502262452
132.4208144796388
83.73846153846205
132.60542986425418
116.12488687782877
151.94660633484256
157.3067873303177
150.75475113122263
145.8108597285077
150.56742081448056
149.7900452488697
148.73755656108688
153.55475113122264
154.69230769230865
155.17466063348513
162.81266968325892
169.65972850678835
139.12398190045334
122.30859728506861
28.35022624434407
42.28144796380116
46.65610859728535
47.67058823529441
44.181900452488954
36.84615384615408
109.03076923076988
95.46244343891462
171.60723981900557
164.49773755656207
159.4072398190055
165.00633484162995
164.5348416289603
161.51945701357565
166.9638009049784
168.62805429864355
166.86515837104173
170.84705882353043
168.60723981900554
164.02262443439014
168.09140271493314
166.4769230769241
161.5357466063358
163.00361990950327
161.19728506787428
156.19819004524982
160.42805429864353
158.2199095022634
154.65610859728602
157.48235294117742
161.30678733031772
160.6045248868788
167.3945701357476
166.80180995475212
157.87058823529506
159.48144796380188
160.64796380090596
152.4217194570145
153.1221719457023
151.50497737556654
149.139366515838
155.4117647058833
139.24796380090584
154.52760180995568
137.43981900452573
130.62171945701436
116.68778280543059
161.82986425339465
156.7004524886887
148.3819004524896
151.75384615384706
151.64162895927694
149.29954751131314
153.97013574660727
154.30950226244437
153.21990950226336
160.63529411764802
164.31221719457113
166.39547511312318
154.98371040724075
110.12126696832647
34.53484162895949
38.12579185520385
44.365610859728775
48.558371040724275
47.83348416289621
40.00452488687807
74.11583710407285
102.10769230769293
172.2850678733042
165.30135746606436
168.41538461538562
166.5638009049784
162.4262443438924
167.78099547511417
168.7710407239829
167.75837104072502
172.62624434389244
171.77918552036303
167.6850678733042
172.18371040724088
170.6352941176481
165.49683257918653
168.3158371040734
163.40542986425436
160.1918552036209
162.70950226244443
161.05067873303264
157.39004524886974
160.8099547511322
160.6597285067883
157.65339366515934
163.10588235294216
166.09592760181096
164.26153846153946
168.97918552036302
168.0841628959286
159.51583710407337
165.7004524886888
162.11040723982
156.19004524886972
158.61176470588333
158.00814479638103
153.57828054298736
157.98371040724078
155.38642533936746
150.31493212669776
90.80542986425394
129.53212669683336
136.23167420814565
131.54298642534016
168.99547511312318
161.2235294117657
161.6886877828064
156.80995475113218
154.6778280542996
159.5746606334851
160.07330316742178
157.91131221719553
162.83167420814578
164.90950226244445
163.68325791855304
172.72850678733136
135.76561085972932
102.87239819004589
107.2380090497744
35.86696832579207
45.78914027149349
48.39276018099577
51.97194570135778
51.5502262443442
46.462443438914306
32.307692307692506
126.98009049773833
99.50135746606395
176.94479638009156
173.24253393665265
177.12760180995582
176.59185520362098
173.62262443439022
178.75927601810065
144.497737556562
110.81176470588304
99.10316742081508
103.52036199095086
152.27782805429956
118.92307692307764
178.55294117647168
172.53393665158475
173.93665158371144
173.8018099547522
168.67058823529516
173.01538461538564
170.67963800905085
166.44977375565713
171.63529411764813
173.66334841629063
173.61176470588342
177.80361990950334
178.15927601810063
173.2642533936662
174.54841628959383
176.1909502262454
168.93665158371144
170.19909502262544
167.09864253393766
163.51764705882454
168.08687782805532
166.70769230769332
162.4262443438924
157.99457013574755
141.68416289592847
90.88506787330371
108.2461538461545
160.39728506787426
140.6090497737565
177.675113122173
171.76561085972955
163.1945701357476
166.69321266968424
166.06696832579286
163.289592760182
168.3610859728517
169.06787330316843
165.87692307692407
172.64434389140376
99.515837104073
99.30226244343953
102.15022624434451
90.71402714932181
37.91583710407263
45.5782805429867
53.76289592760214
59.00000000000036
60.63710407239856
60.49321266968362
55.090497737556895
44.01538461538488
92.17375565610914
103.9610859728513
99.84072398190106
144.22443438914115
141.48506787330405
157.79457013574756
169.7239819004535
99.56018099547572
100.42895927601873
107.07420814479704
103.0407239819011
101.6769230769237
107.28868778280608
102.85067873303231
96.70226244343951
123.62805429864329
164.71402714932228
177.7176470588246
176.85882352941283
172.18099547511417
174.90769230769337
172.53936651583814
168.68687782805534
173.3303167420825
172.24072398190148
167.79638009049876
172.45158371040827
173.92217194570242
173.73936651583816
180.06425339366626
180.0868778280554
174.8361990950237
173.8226244343902
175.48778280543092
170.44615384615489
171.73936651583813
166.6606334841639
161.8126696832589
167.1212669683268
166.00452488687884
162.3393665158381
164.6262443438924
154.124886877829
109.32941176470655
113.86425339366583
79.42986425339413
141.2588235294126
164.04524886877928
170.96289592760286
162.93936651583812
164.93755656108698
162.72579185520462
159.21447963801
165.03891402715035
166.54027149321368
163.6316742081458
169.59457013574763
134.22352941176555
102.60180995475176
97.00452488687841
108.78823529411832
103.6506787330323
37.939366515837335
47.631674208145085
55.40000000000034
58.27330316742117
57.2669683257922
53.1900452488691
25.754751131221884
120.65972850678806
103.89864253393728
95.7864253393671
174.94751131221824
172.56108597285174
141.2262443438923
136.88597285067956
162.71402714932225
95.50769230769289
101.66063348416351
99.63619909502323
98.17828054298704
101.63257918552098
97.80090497737618
117.8009049773763
176.23891402715037
172.19728506787436
173.7963800904988
171.25067873303271
167.23167420814582
170.45701357466166
168.09683257918653
164.63348416289693
168.40000000000106
168.28959276018202
166.67511312217295
173.46877828054403
174.24253393665262
171.94751131221824
176.3085972850689
168.34298642534037
166.08868778280646
170.65610859728608
165.5683257918562
159.77104072398288
162.9366515837114
162.6733031674218
158.1963800904987
162.7022624434399
152.41990950226335
102.81447963800969
127.32036199095099
105.3457013574667
118.5058823529419
166.49140271493312
167.66696832579288
159.50769230769328
161.30045248868876
160.01809954751226
159.11674208144893
164.04072398190144
162.93031674208243
160.75384615384712
166.70316742081548
168.60180995475216
103.73936651583774
97.7185520361997
110.76832579185587
71.48054298642577
39.75837104072423
48.88778280543016
54.23257918552069
55.06334841628993
49.34841628959306
50.17737556561117
109.52941176470654
103.96742081448026
95.0968325791861
115.99457013574732
175.3728506787341
172.14027149321373
175.94932126696938
131.91221719457096
96.35927601810013
95.70950226244403
101.72217194570197
96.41628959276076
94.73212669683315
129.69321266968404
129.94570135746687
174.17828054298747
170.87873303167524
165.05429864253495
169.69773755656212
166.737556561087
162.2714932126707
166.48054298642634
165.24705882353044
162.68144796380187
171.11040723982
173.42171945701463
169.10497737556665
174.1755656108608
167.98280542986527
165.5864253393675
169.01900452488792
164.01447963801004
156.75746606334937
161.80633484162993
161.0995475113132
158.95656108597382
160.19004524886975
150.7502262443448
82.37737556561137
101.00633484162958
123.02714932126773
129.02714932126776
168.7031674208155
165.02986425339466
157.39276018099642
160.67330316742178
159.2497737556571
155.2886877828064
160.6434389140281
163.81176470588335
160.31131221719556
172.27873303167524
75.49502262443485
96.6497737556567
104.10588235294182
94.21628959276076
41.116742081448216
45.534841628959555
52.53303167420846
56.904072398190394
55.14027149321301
39.88597285067898
133.3873303167429
105.1484162895934
101.94389140271556
94.86606334841687
92.08506787330373
163.21809954751228
159.7194570135756
88.79457013574715
118.88959276018173
96.91855203619969
95.74117647058883
101.37737556561146
98.48778280543046
96.15475113122231
99.03800904977435
93.38099547511369
117.13303167420887
152.88597285067965
167.38642533936755
170.68597285067978
167.24796380090598
162.94751131221818
168.12579185520462
167.02533936651687
163.7972850678743
168.06606334841732
172.23438914027253
170.65791855203724
175.36832579185625
173.8117647058834
164.12307692307792
170.44705882353045
167.38552036199195
160.83529411764803
161.76380090497835
158.7149321266978
156.96108597285166
162.19547511312317
160.3493212669693
143.3782805429873
109.56651583710476
102.86877828054361
86.56289592760234
130.789140271494
168.94117647058926
160.7674208144806
162.35475113122268
159.35656108597385
155.94570135746702
160.93846153846252
159.58371040724077
158.47873303167518
132.74117647058904
71.32579185520406
89.87873303167476
93.1149321266974
108.67058823529477
114.59547511312287
49.56018099547542
47.481447963801195
53.130316742081774
54.89502262443473
49.533031674208445
82.92850678733082
111.14117647058893
103.44886877828117
94.64343891402773
87.13665158371094
123.7701357466071
151.076923076924
152.81266968325883
98.35746606334901
113.3447963800912
92.66063348416347
99.37556561086032
94.89049773755714
93.2705882352947
97.8443438914033
93.18280542986481
90.6669683257924
167.35746606334942
165.02714932126798
168.9194570135757
166.88868778280644
161.26153846153943
165.7601809954761
163.5266968325802
161.63076923077023
166.89230769230875
169.54117647058925
166.3873303167431
172.82624434389243
171.71312217194674
162.89864253393765
169.0298642533947
165.14841628959377
158.5276018099557
160.9674208144806
159.76832579185617
156.44796380090594
160.93303167420913
155.50678733031768
152.11493212669774
107.33574660633549
91.53936651583767
108.34932126696899
154.79638009049867
111.57556561086041
158.85339366515933
160.02171945701454
158.0696832579195
156.00542986425435
162.27782805429962
94.42895927601869
125.27239819004603
82.42714932126748
91.75746606334896
94.20904977375623
101.41990950226307
116.88597285067944
77.21990950226291
46.34751131221748
51.377375565611175
54.97104072398224
51.38099547511344
102.33031674208206
110.2570135746613
101.17647058823592
99.70407239819065
93.86968325791912
91.17466063348473
96.50950226244402
94.30135746606392
95.39366515837162
101.42986425339427
97.49140271493272
96.82352941176529
101.24886877828116
96.97285067873361
93.73303167420872
94.79366515837162
90.72036199095078
110.96923076923144
133.30407239819087
164.1529411764716
166.7384615384625
165.99276018099647
161.95113122172043
166.49592760181096
165.3131221719467
166.18099547511414
172.2380090497748
173.81266968325897
170.28054298642638
169.98371040724086
167.68506787330418
163.40633484162996
166.6217194570146
161.92488687782904
159.02986425339463
162.8733031674218
162.1149321266978
156.1330316742091
173.30407239819107
71.37918552036243
68.69321266968369
108.17104072398256
150.30497737556652
97.98099547511373
80.36018099547562
168.63619909502364
81.86425339366566
81.04615384615434
85.79366515837155
83.00180995475164
83.78642533936703
91.03891402714989
92.18642533936708
94.56018099547569
104.90045248868843
109.25791855203687
134.92217194570216
39.003619909502504
51.031674208145105
53.965610859728834
56.25610859728541
53.86877828054332
29.993665158371225
126.14027149321343
110.07239819004593
101.15927601810017
102.17828054298704
97.21990950226304
95.426244343892
99.33393665158431
96.23981900452547
95.48687782805487
103.76561085972914
101.75384615384678
100.47239819004585
105.01990950226308
101.06968325791917
100.17737556561147
103.13484162895989
97.0733031674214
93.93936651583768
96.94751131221778
92.8542986425345
90.9040723981906
93.36923076923132
89.05067873303223
87.15837104072452
101.49864253393729
99.97104072398251
91.20814479638065
97.15022624434447
97.05429864253452
96.4841628959282
106.56561085972916
168.18009049773855
91.48959276018155
92.0515837104078
86.46244343891456
130.19457013574743
124.36289592760255
168.43257918552138
78.14932126696881
168.4769230769241
66.75927601809997
107.02262443438978
102.70950226244408
117.61266968325864
112.54298642534006
89.8533936651589
82.1628959276023
114.48687782805497
84.2769230769236
81.85067873303217
80.9076923076928
85.97194570135798
84.76380090497788
84.53303167420866
93.7122171945707
95.89502262443497
100.67511312217256
113.57918552036267
109.97918552036265
43.8624434389143
50.043438914027455
54.93846153846187
56.60723981900487
53.6479638009053
55.740271493213015
118.07330316742153
110.50678733031741
98.49864253393724
93.7040723981906
96.78099547511371
93.6389140271499
91.309502262444
96.16651583710465
94.54298642533993
95.08597285067933
101.94660633484224
97.25791855203678
96.92488687782864
101.11764705882413
97.18190045248929
95.05610859728566
98.77737556561145
93.35927601810012
89.87511312217251
101.95927601810017
81.89321266968376
149.53755656108686
165.70769230769332
163.6968325791865
168.21085972850778
166.2398190045259
163.68597285067972
169.137556561087
171.37285067873407
104.69411764705947
176.52036199095127
171.3746606334852
163.39276018099645
171.14117647058924
164.96018099547612
159.45339366515935
162.40000000000097
160.14027149321365
157.43891402715028
163.65339366515934
148.4895927601819
96.97013574660693
99.7819004524893
86.06515837104126
120.12217194570209
151.20361990950317
133.82262443438995
157.58009049773852
159.75203619909598
157.4778280542996
153.90407239819098
159.16923076923172
157.13122171945795
143.47420814479725
99.8479638009056
87.37194570135799
86.49864253393719
88.87782805429919
99.63619909502323
104.67782805429928
110.91402714932195
62.090497737556944
43.872398190045516
48.30859728506817
51.43257918552067
50.15746606334872
45.81085972850707
118.2533936651591
103.11674208144859
96.4208144796386
96.89864253393725
103.60995475113185
176.55656108597393
141.05520361991034
125.82443438914105
150.53122171945793
95.10678733031732
92.29502262443495
91.17918552036255
96.53031674208202
93.83167420814537
90.88235294117703
125.43438914027224
125.0914027149329
170.8986425339377
167.89864253393768
161.59004524886979
164.00452488687884
161.372850678734
158.7013574660643
162.4099547511322
159.67420814479735
155.4515837104082
159.75656108597383
163.4307692307702
163.99547511312318
168.52398190045352
169.50316742081552
164.7502262443449
163.36108597285167
164.3710407239829
158.9891402714942
158.72850678733127
155.45972850678825
153.23891402715026
158.2380090497747
156.4959276018109
142.2733031674217
161.0859728506797
69.8479638009054
150.54751131221812
135.29864253393745
152.29140271493307
157.12941176470684
159.94841628959372
154.9674208144806
151.48506787330408
155.11764705882445
154.98733031674303
153.22262443439007
157.9538461538471
159.59457013574757
157.5095022624444
166.7393665158381
95.38371040724041
98.536651583711
102.99095022624498
120.57104072398263
20.389140271493343
43.82171945701384
46.78823529411793
43.86153846153873
40.62443438914053
115.65972850678803
101.3031674208151
89.63076923076979
188.47873303167535
164.8968325791865
168.73665158371142
169.43348416289695
165.54841628959377
170.73303167420917
169.29864253393768
154.23619909502355
110.23891402715
105.43891402714996
149.966515837105
173.77013574660737
169.4850678733042
164.400000000001
167.43619909502365
162.6760180995485
158.5276018099557
160.86877828054398
159.98371040724078
156.5809954751141
160.6868778280553
159.220814479639
160.83257918552135
166.47149321267068
168.05701357466165
161.2859728506797
161.3782805429874
162.4126696832589
156.54027149321362
157.60995475113216
153.46968325791948
149.4841628959285
154.54479638009144
153.77375565610953
142.7728506787339
151.81447963800997
68.52850678733074
145.55294117647148
107.99728506787396
158.14027149321362
153.70045248868874
154.60995475113216
150.7447963800914
148.93846153846243
153.51040723981995
152.6669683257928
150.73303167420906
158.06063348416384
160.03438914027248
161.7122171945711
147.95022624434478
99.28778280543047
105.48687782805493
112.26425339366583
38.78190045248892
44.55384615384642
44.901357466063615
40.16380090497762
112.07149321267036
102.1085972850685
95.75656108597344
153.09140271493305
165.33122171945803
163.1384615384625
160.83257918552135
164.87149321267069
164.1927601809965
162.65158371040823
169.39366515837207
169.74208144796484
164.80452488687882
167.63891402715032
167.1185520362001
162.86877828054398
164.99728506787432
161.54389140271593
156.28778280543082
159.49321266968423
156.3466063348426
154.53936651583805
156.20995475113216
154.766515837105
151.97375565610952
160.9891402714942
161.51674208144894
160.7158371040734
164.668778280544
160.31674208144895
154.49049773755752
159.78461538461636
153.93574660633578
147.65701357466153
149.5113122171955
151.4823529411774
148.99547511312306
154.12850678733125
137.23348416289676
150.56380090497828
124.60361990950301
112.25791855203687
115.76199095022696
156.35294117647155
157.07239819004621
149.65520361991042
152.2162895927611
149.5049773755665
147.20361990950317
152.41900452488778
153.75022624434482
153.25791855203713
158.5565610859738
160.45339366515935
180.16199095022733
86.87873303167474
103.52669683257982
109.11674208144862
112.64343891402783
38.87149321266992
45.561085972850954
46.97737556561114
41.03348416289618
115.03891402715001
105.37828054298706
100.1447963800911
157.08506787330413
167.69773755656212
162.99366515837204
160.22171945701456
165.2968325791865
166.16561085972953
163.1891402714942
168.4190045248879
168.7819004524897
166.77556561086075
169.82262443439018
167.5719457013585
162.24705882353038
165.88868778280641
163.03529411764805
157.93031674208243
159.1466063348426
157.17375565610953
153.6461538461548
158.0470588235304
155.69773755656203
152.19909502262536
156.1438914027159
155.43891402715025
158.18009049773852
163.3131221719467
162.8633484162906
158.87239819004623
158.25248868778377
159.04162895927698
153.34751131221813
153.84162895927693
149.1366515837113
147.7737556561095
153.64705882353036
151.60542986425432
135.15746606334926
132.11402714932206
96.07963800905037
124.04796380090572
123.13484162896003
160.45972850678828
151.1429864253403
151.7610859728516
150.42262443439006
148.3764705882362
151.81266968325883
151.60723981900546
149.5628959276027
156.64705882353036
157.60633484162992
158.6199095022634
170.08325791855304
76.8886877828059
100.66244343891465
107.26787330316807
95.18914027149378
38.72760180995498
42.7384615384618
43.196380090497996
41.40723981900477
105.72579185520425
106.16832579185584
94.4995475113128
147.03800904977464
166.68868778280645
161.63076923077023
166.0497737556571
165.77194570135848
164.5737556561096
169.11131221719558
169.10135746606437
166.04524886877928
169.77556561086072
169.00361990950327
165.7628959276028
168.2162895927612
163.68597285067972
160.12126696832678
162.7393665158381
159.41357466063445
154.3031674208154
158.33574660633582
156.7565610859738
153.76561085972946
157.89683257918648
160.03529411764805
158.56832579185615
165.68687782805532
164.8950226244354
159.20090497737652
159.9601809954761
160.11855203620007
153.5429864253403
155.58190045248963
153.64072398190137
150.49411764705974
154.1719457013584
150.24343891402805
162.87239819004623
96.68144796380149
144.81719457013662
113.3339366515844
148.01085972850768
161.8054298642544
154.44162895927695
154.67601809954846
152.43891402715025
149.3864253393674
154.81900452488782
154.6687782805439
152.9321266968335
157.92398190045344
160.38190045248967
161.49502262443536
112.01266968325861
98.42081447963861
103.10588235294179
128.08687782805507
33.00361990950247
42.06425339366541
44.72941176470616
43.55294117647085
40.9565610859731
104.71221719457077
106.98733031674273
76.70135746606383
173.8325791855214
169.11764705882456
165.59185520362092
169.58461538461643
169.46606334841732
166.2108597285078
172.61176470588342
172.53393665158475
169.5828054298653
173.07330316742187
170.31945701357571
166.06968325791956
169.9194570135757
166.800000000001
161.14208144796478
163.26153846153946
161.14479638009146
157.45791855203714
160.2253393665168
158.43167420814575
154.41176470588331
160.07873303167517
163.99638009049872
162.52398190045346
168.07058823529513
167.52217194570238
158.8099547511322
163.58009049773855
162.8054298642544
154.87058823529506
155.09864253393758
152.7321266968335
150.57556561086065
154.4325791855213
151.98823529411857
135.3665158371049
164.63891402715032
85.89592760181048
90.71131221719513
138.12579185520445
144.08144796380176
155.59004524886973
158.31945701357563
153.3185520362
148.83800904977466
152.8660633484172
151.65791855203713
149.6742081447973
156.26334841629054
156.39909502262537
155.3647058823539
162.52669683258017
167.41266968325894
133.8271493212678
96.75565610859786
110.78009049773823
72.53393665158414
38.53665158371064
44.34841628959303
47.806334841629244
45.64796380090525
34.48687782805451
128.7855203619917
99.09049773755717
170.91040723982002
164.18009049773855
166.3981900452499
166.2244343891413
164.23710407239918
167.95656108597387
168.50950226244447
166.90588235294217
172.25158371040828
171.29954751131325
167.0714932126707
170.4090497737567
169.21809954751234
165.07601809954852
167.81719457013673
164.14389140271595
158.78823529411864
161.93846153846255
161.76108597285167
156.8063348416299
160.95022624434486
157.65339366515934
155.9484162895937
161.06425339366612
165.93936651583812
163.40090497737657
167.20180995475215
168.58099547511415
157.97918552036293
164.20723981900554
162.21719457013674
154.4063348416299
155.8407239819014
154.79185520362086
152.58733031674302
155.9357466063358
154.03438914027242
138.79004524886963
157.15294117647153
65.85610859728547
134.19457013574743
139.52579185520446
132.46787330316823
156.9095022624444
159.93393665158467
153.17828054298735
149.10407239819094
153.2533936651593
152.33846153846247
151.056108597286
155.987330316743
155.18823529411858
155.93484162896024
162.92036199095122
165.77466063348515
132.92579185520444
95.38371040724041
108.55113122172013
115.38280542986496
47.49140271493242
43.38099547511338
46.97828054298671
45.68959276018127
62.56651583710446
111.549321266969
99.97013574660696
103.90226244343954
164.95113122172046
167.1031674208155
166.5429864253404
163.35203619909603
167.46425339366616
168.01266968325893
166.9330316742092
173.00723981900558
170.4769230769241
166.48778280543087
171.37375565610964
169.6325791855214
165.73303167420914
167.5266968325802
163.34027149321366
158.42986425339464
163.12760180995576
159.86877828054395
154.77013574660728
158.86063348416386
157.6461538461548
154.5909502262453
158.04886877828153
159.41176470588334
159.02443438914125
165.24162895927702
166.20904977375665
159.76832579185617
159.77375565610956
159.883257918553
154.70497737556656
156.55384615384713
153.62171945701448
148.90588235294206
152.07149321267062
152.9954751131231
147.02171945701446
140.71764705882438
104.85158371040788
103.54660633484227
125.56108597285146
134.07058823529493
153.06515837104166
159.89321266968423
152.7004524886887
149.34570135746696
153.41990950226338
153.2190045248878
149.60090497737647
154.58099547511407
155.88597285067968
155.22352941176564
162.44072398190144
124.93393665158445
89.82171945701413
96.44615384615443
112.01719457013644
117.20180995475184
48.04072398190075
40.666968325792105
44.260633484163165
78.66606334841677
115.42895927601879
100.03257918552097
90.509502262444
167.74298642534035
163.90045248868879
168.04615384615488
166.2533936651594
162.3203619909512
169.80452488687885
125.86244343891481
90.25339366515892
124.1728506787338
158.48868778280638
124.33755656108671
83.11855203619962
184.9312217194581
161.67149321267067
164.89954751131322
162.85791855203718
157.74027149321364
161.02895927601907
159.1257918552046
155.06334841629055
159.1565610859738
161.56470588235393
162.47239819004625
168.10407239819108
166.55927601810055
161.8153846153856
161.42081447963898
163.42352941176568
157.3194570135756
158.8959276018109
155.01809954751224
152.2588235294127
157.45701357466157
156.20633484162988
142.87330316742168
139.30497737556644
96.4099547511318
144.08054298642622
134.59095022624516
149.69140271493302
125.8361990950234
160.31945701357563
155.03348416289688
152.8588235294127
157.60633484162992
156.73212669683355
155.72850678733127
99.85882352941239
103.83529411764769
83.97104072398241
86.80180995475166
101.53484162895988
106.83619909502328
113.82714932126765
101.71312217194631
45.98461538461566
49.60904977375596
46.132126696832856
119.7058823529419
110.23257918552103
101.57466063348478
92.48778280543044
88.50769230769285
125.64977375565685
88.01357466063402
88.15565610859781
94.8832579185526
92.74570135746661
91.69954751131277
96.3656108597291
93.66877828054356
93.02895927601867
94.40361990950284
89.82171945701413
85.57194570135799
89.73303167420868
120.55746606334915
166.57737556561187
162.95113122172046
159.60542986425438
163.93031674208243
164.00904977375666
165.36380090497838
169.74389140271597
169.77285067873405
166.41990950226347
166.7085972850689
166.2841628959286
161.23710407239918
161.14751131221817
157.80995475113218
155.02262443439008
159.84434389140367
157.72669683258016
141.86606334841716
142.0488687782814
111.08597285067941
109.24796380090564
114.70135746606404
155.68597285067966
134.0090497737565
133.58733031674288
155.91583710407335
153.04886877828147
157.20361990950323
155.85791855203712
105.97194570135812
77.0334841628964
84.59819004524937
85.24162895927654
88.06244343891456
102.33031674208206
107.42805429864319
113.76923076923146
101.28959276018159
45.202714932126966
49.25701357466093
48.91221719457044
122.8063348416297
115.60814479638078
107.02443438914092
96.45701357466122
89.81538461538516
90.88325791855259
86.80542986425392
86.66425339366569
92.2515837104078
91.67873303167477
90.16742081448018
95.92488687782864
92.99819004524943
91.78914027149378
94.79547511312275
90.22081447963855
88.18371040724037
90.38009049773811
87.13936651583762
83.61357466063399
87.27511312217247
149.93122171945794
163.50588235294214
126.80090497737633
158.7990950226254
162.3837104072408
162.04253393665257
150.17737556561178
108.44072398190113
170.44615384615489
164.51674208144897
164.56199095022725
157.0407239819014
83.53574660633537
162.67420814479738
157.7438914027159
153.94208144796474
159.60361990950324
158.31312217194665
149.0633484162905
144.44615384615474
82.75384615384665
96.76018099547571
119.3113122171953
143.23438914027236
91.18823529411821
136.1294117647067
155.98371040724078
154.12126696832672
131.857918552037
173.61628959276123
153.1828054298652
138.15656108597366
65.31402714932166
84.3212669683263
87.28325791855258
98.03800904977435
102.62533936651647
112.4624434389147
128.17013574660712
26.074208144796543
48.55384615384645
48.22443438914057
86.96289592760235
116.7131221719464
107.79185520362057
96.1393665158377
90.05972850678788
94.30407239819061
92.13755656108653
89.59638009049829
93.95746606334899
92.71040723981957
93.9176470588241
97.36018099547569
94.33936651583768
91.8542986425345
95.84343891402773
93.57104072398246
88.64434389140325
91.3773755656114
86.43891402714985
80.20542986425389
116.83348416289665
161.15022624434488
164.36108597285167
162.56380090497836
158.92669683258015
165.87058823529512
168.71221719457117
167.79638009049876
175.36742081448068
150.94298642534028
162.61628959276118
168.6769230769241
126.44434389140348
149.65972850678824
161.05610859728606
161.47149321267068
157.2434389140281
162.44977375565708
157.44162895927698
170.81447963801008
81.70588235294167
111.87239819004591
130.81900452488767
139.31855203619995
96.48597285067933
84.38914027149373
75.24886877828101
176.84072398190153
155.15927601810048
135.06244343891484
92.70588235294176
122.26153846153922
79.74660633484213
86.91674208144848
87.63348416289647
92.42171945701413
104.03076923076985
108.83167420814544
114.82714932126765
65.73484162895969
48.74298642533966
52.12036199095054
47.69864253393695
121.21538461538535
111.85339366515905
105.43710407239884
96.66334841629018
92.43710407239875
94.0099547511318
92.31945701357523
92.03800904977432
98.28959276018159
95.42533936651641
93.9176470588241
100.2343891402721
96.92126696832638
95.84072398190105
98.14208144796439
93.2018099547517
90.6986425339372
93.11040723981957
71.81990950226289
145.428959276019
184.48054298642643
163.0316742081458
166.73665158371142
165.99366515837204
161.01447963801002
168.57647058823633
170.31040723982005
169.92760180995577
173.75746606334948
169.9294117647069
161.4678733031684
169.15927601810057
164.48235294117748
157.73484162896023
160.04434389140368
157.8226244343901
155.0090497737566
161.00904977375663
148.5819004524896
154.93574660633578
80.74841628959325
96.3737556561092
106.7990950226251
147.3674208144805
165.4497737556571
156.11402714932223
157.1348416289602
155.6986425339376
152.29411764705975
156.49230769230866
154.81900452488782
154.08325791855296
161.07149321267065
122.31764705882426
86.65067873303221
90.2959276018105
103.0479638009056
109.80361990950294
135.1819004524895
36.671493212669915
46.2995475113125
48.79909502262473
47.9972850678736
51.11674208144827
114.63619909502333
103.58190045248932
92.81900452488745
110.51764705882422
168.23891402715032
164.1203619909512
168.57466063348517
168.98823529411868
166.99819004524988
173.13122171945804
131.42171945701438
91.730316742082
89.64524886877882
103.20723981900517
101.29230769230833
171.51583710407343
168.22714932126797
164.0524886877838
167.5719457013585
164.1574660633494
159.85791855203718
162.01357466063445
162.61176470588333
158.4841628959286
161.979185520363
160.0361990950236
160.8705882352951
166.58371040724083
170.01085972850782
167.56289592760282
169.158371040725
162.83348416289692
160.74298642534035
164.81719457013676
159.66334841629057
153.30678733031766
157.02805429864347
156.40814479638104
153.33665158371133
152.68144796380182
155.69954751131317
59.62714932126734
90.97375565610916
104.59095022624498
142.38733031674295
163.8497737556571
157.2226244343901
150.9746606334851
156.26063348416386
154.36561085972943
152.66334841629052
157.2787330316752
157.06063348416384
157.84072398190142
165.00271493212773
127.6886877828062
94.25520361991008
100.64072398190106
117.24705882353012
40.88778280543013
42.44162895927628
46.823529411764994
48.197285067873594
26.351131221719623
125.25067873303243
106.21176470588298
94.80995475113181
103.38371040724044
99.7502262443445
170.63076923077026
167.92036199095125
164.18823529411867
170.9221719457024
134.03348416289677
101.29864253393727
89.0642533936657
93.51040723981957
90.51674208144851
89.24796380090552
94.3547511312223
103.653393665159
171.427149321268
167.14660633484263
162.81990950226344
165.90950226244448
161.96380090497834
157.21357466063444
162.36108597285167
160.9149321266978
157.20542986425437
160.77104072398288
159.7493212669693
160.62624434389238
166.66425339366617
167.46425339366618
164.63619909502364
163.6814479638019
161.54570135746707
159.6597285067883
161.36923076923176
155.8307692307702
150.91493212669775
155.94208144796474
156.34570135746702
153.25248868778374
145.18009049773843
116.56470588235364
111.85520361991018
128.0941176470596
126.38190045248945
148.31674208144887
163.6524886877838
157.46063348416385
152.856108597286
157.3429864253403
155.39547511312313
151.75656108597377
157.59738562091508
132.93755656108678
98.74208144796441
113.38461538461607
120.11312217194643
131.33031674208223
140.33212669683343
140.62714932126784
138.0452488687791
126.87963800905055
146.40180995475203
165.92579185520464
146.27511312217283
126.7176470588243
115.04162895927672
108.08144796380157
97.61628959276078
92.65067873303224
96.66244343891461
95.18914027149378
93.12398190045306
95.18914027149378
91.95294117647114
89.60723981900506
95.37828054298699
87.14751131221773
117.58914027149392
182.6787330316753
161.28868778280642
163.28868778280642
160.0696832579195
157.42262443439012
161.73031674208244
159.42895927601904
156.8171945701367
160.53212669683356
159.54117647058922
157.13755656108694
160.80633484162993
159.61538461538558
156.51855203620005
160.25520361991047
162.26425339366614
118.37828054298716
95.83257918552094
51.31040723981932
86.89954751131273
62.62714932126734
64.83981900452528
81.55927601810005
129.72126696832657
113.31945701357535
110.82443438914095
98.0398190045255
125.63348416289668
133.01900452488766
111.04615384615452
140.06877828054382
146.47692307692398
160.4678733031684
167.11312217194674
134.20542986425423
101.4687782805436
117.13665158371111
121.54117647058897
131.69049773755737
141.76561085972938
142.24253393665245
139.76289592760267
128.43076923077
115.67058823529484
171.24977375565715
146.9095022624443
131.43619909502343
116.78280542986496
110.03529411764772
99.51131221719518
95.55837104072457
97.64615384615443
94.44524886877886
92.7963800904983
94.79095022624492
91.32307692307748
91.31855203619966
94.02624434389199
89.09411764705936
84.30407239819056
162.89864253393762
160.66968325791953
163.53212669683356
160.45067873303262
155.89411764705977
159.18190045248966
157.62714932126792
154.61809954751226
158.5647058823539
157.10769230769327
153.53212669683353
158.01900452488786
157.25610859728602
154.78642533936747
157.60180995475207
156.6669683257928
173.24977375565715
130.94751131221798
70.9140271493217
19.612669683258044
81.9420814479643
73.09502262443483
39.023529411764954
83.09230769230821
132.36923076923156
107.83800904977441
118.49411764705954
105.78099547511376
113.07963800905046
119.70588235294191
100.67058823529474
121.32579185520436
139.38461538461624
148.45158371040813
151.32579185520453
143.70045248868865
95.467873303168
100.20995475113185
111.52669683257986
123.78914027149398
128.08687782805507
134.8506787330325
136.6407239819013
130.7502262443447
113.58190045248938
174.15294117647164
160.1384615384625
139.99457013574747
124.27963800905053
110.14841628959343
99.82171945701418
99.52126696832637
94.26334841629016
91.88959276018156
95.37918552036257
91.34208144796436
91.00271493212725
98.43529411764767
93.87239819004581
91.73393665158427
93.64434389140328
89.89411764705937
168.13393665158475
162.57466063348517
158.3809954751141
157.99004524886973
156.65972850678827
152.98099547511407
156.6778280542996
153.5013574660643
150.5484162895937
155.04524886877923
154.55203619909597
152.4950226244353
155.55384615384708
154.46968325791948
152.9484162895937
159.65791855203716
132.32488687782887
90.98099547511369
56.338461538461885
91.16923076923132
82.54027149321317
46.69864253393694
92.44072398190102
109.60000000000068
128.13484162896006
127.59819004524962
145.14027149321356
83.41628959276069
117.47149321267038
143.71402714932213
99.05067873303229
133.21447963800986
140.32488687782893
156.7149321266978
93.29230769230826
97.55203619909562
112.23257918552105
128.21176470588313
133.11493212669765
143.89049773755744
150.35475113122263
147.0180995475122
137.12126696832664
123.25429864253468
108.98099547511379
167.04524886877928
146.78914027149412
129.5656108597293
116.36742081448035
110.44615384615452
104.00452488687846
97.49502262443498
97.42714932126756
91.58099547511368
90.619909502263
97.35565610859786
93.92941176470646
92.32579185520419
97.45610859728565
92.55022624434446
92.58099547511368
96.14298642533994
156.92579185520458
145.06877828054385
168.58190045248972
165.20633484162994
170.14479638009152
169.07692307692412
163.8841628959286
168.32850678733138
167.14117647058924
162.50226244343992
163.00361990950324
163.56923076923175
157.87873303167518
162.07149321267067
161.23710407239918
157.3466063348426
167.42443438914125
138.9936651583719
84.69230769230822
46.33031674208173
94.26877828054356
88.32579185520416
73.08506787330361
76.68597285067919
76.896832579186
124.3221719457021
130.58733031674288
144.24705882353027
97.49502262443498
92.68235294117704
136.8687782805438
107.95203619909569
141.2515837104081
147.96742081448053
164.7185520362001
98.88506787330377
103.73393665158434
114.99638009049843
133.6733031674216
139.18280542986508
147.8343891402724
149.9266968325801
147.59095022624524
132.43891402715013
126.77375565610937
175.84162895927707
155.60180995475207
138.57556561086056
124.58914027149397
112.59004524886947
106.05520361991016
97.83619909502323
95.0968325791861
107.41809954751196
170.72036199095126
173.92579185520466
172.54660633484266
169.9140271493223
174.79276018099654
141.71583710407327
168.04343891402817
171.87420814479742
169.9981900452499
165.17375565610962
169.16742081448066
165.8054298642544
161.4868778280553
164.5547511312227
162.78552036199193
158.76108597285165
161.86515837104173
158.84253393665256
155.56018099547606
159.57194570135843
157.92217194570233
153.99366515837198
157.71855203620004
158.7257918552046
156.5429864253403
162.03529411764802
162.42714932126796
133.5665158371049
112.1656108597292
70.77375565610902
74.2253393665163
60.41266968325829
80.3891402714937
70.19457013574703
79.10859728506836
115.4950226244351
115.27692307692377
126.9122171945709
134.87782805429944
93.30316742081504
110.71221719457081
139.50588235294202
96.92126696832639
123.8696832579193
141.2461538461547
144.7230769230778
163.16380090497836
72.6642533936656
95.8497737556567
109.06515837104138
119.9294117647066
124.86696832579261
132.20452488687863
135.07873303167503
130.54389140271573
118.07963800905048
113.15475113122241
164.02624434389242
149.10226244343983
133.39366515837185
119.75113122172019
106.2271493212676
99.184615384616
93.48959276018157
111.60271493212738
169.0199095022635
164.87239819004625
168.97828054298745
169.09592760181096
166.41719457013676
170.72217194570237
169.49321266968428
164.70678733031775
169.91221719457116
167.75384615384718
163.05067873303267
165.53031674208245
162.5285067873313
158.35384615384712
161.72126696832677
159.60090497737653
155.552036199096
158.7601809954761
157.16923076923172
154.38190045248962
157.62624434389235
155.7909502262453
151.76199095022716
156.1067873303177
155.95475113122268
153.22262443439007
156.98642533936746
159.1122171945711
130.27420814479717
81.66877828054348
41.63167420814506
61.476018099547886
74.74479638009095
57.66515837104108
76.29230769230816
129.27782805429942
112.6443438914034
114.61447963800974
138.4769230769239
110.9755656108604
108.94841628959344
107.55384615384682
125.69049773755732
129.72579185520442
141.49230769230854
148.0425339366525
150.63348416289682
104.76199095022689
95.56470588235351
104.17647058823593
114.98190045248938
127.09592760181073
130.1366515837112
133.71674208144879
131.6705882352949
122.26877828054374
123.74027149321343
159.74389140271592
144.09864253393755
125.71583710407316
116.31945701357536
104.3927601809961
97.3710407239825
100.2841628959282
95.71583710407297
92.24796380090555
96.27692307692367
91.74932126696888
92.0461538461544
96.36561085972909
91.55656108597341
122.36018099547586
187.4832579185532
165.15746606334943
167.65972850678835
165.7266968325802
160.020814479639
162.67692307692406
160.75384615384712
157.6751131221729
161.35656108597382
158.83710407239914
154.60995475113216
158.8235294117657
159.60090497737656
156.87963800905075
159.61085972850776
159.08778280543083
155.56832579185615
161.59909502262542
123.6380090497745
80.21538461538512
40.82714932126722
87.0162895927607
71.95837104072442
80.56018099547558
83.79095022624486
108.83981900452555
110.72579185520429
123.5429864253401
91.59095022624491
118.19728506787402
128.71131221719534
125.8624434389148
147.3285067873312
159.462443438915
164.51493212669783
179.65972850678838
87.40633484162949
109.08778280543054
119.49864253393739
126.10859728506864
131.4968325791863
133.0678733031682
130.9420814479646
125.24434389140347
128.43619909502343
167.39366515837207
150.0552036199104
132.47149321267048
121.314027149322
109.73574660633551
100.75746606334903
101.85610859728567
97.64343891402774
95.44705882353
99.57013574660692
94.42624434389198
94.1176470588241
97.97194570135805
94.17647058823587
86.88868778280596
188.7402714932138
165.54841628959377
168.5502262443449
166.4162895927612
161.00090497737654
163.71493212669782
161.9122171945711
159.4072398190055
162.31131221719554
159.91402714932224
154.64796380090593
159.78733031674307
159.58733031674305
156.0217194570145
159.94208144796477
159.64796380090593
174.82171945701464
137.07330316742164
71.72669683257963
25.528506787330485
96.97737556561145
83.27058823529462
42.95746606334869
81.10588235294168
130.27963800905056
105.43529411764771
115.22714932126766
110.89954751131287
121.21900452488762
132.07601809954832
90.19185520362045
127.07330316742159
146.15294117647147
155.2778280542996
157.35294117647155
111.96651583710477
103.85429864253459
110.80633484162963
122.63710407239893
135.1791855203628
137.29864253393748
137.3457013574669
136.16289592760265
123.851583710408
125.63257918552114
163.80180995475212
147.139366515838
129.499547511313
118.12398190045322
106.07601809954815
98.44072398190106
100.48868778280604
96.79095022624492
95.4099547511318
99.56199095022686
95.50407239819063
94.36289592760238
97.83981900452548
93.56018099547568
89.18642533936705
90.03348416289647
122.07782805429937
167.46606334841732
163.79638009049873
158.94298642534034
162.51221719457112
160.67963800905073
157.66153846153944
161.20271493212766
158.8253393665168
154.81085972850772
160.2262443438924
159.6968325791865
156.89864253393762
160.0678733031684
160.25339366515934
154.65158371040818
110.71312217194637
79.64253393665206
88.06696832579239
52.49592760181028
50.61900452488719
87.77285067873356
137.84343891402798
106.99276018099613
107.9330316742088
134.55475113122253
108.38280542986493
113.84615384615455
118.7276018099555
136.95475113122257
143.001809954752
157.0542986425349
165.6217194570146
131.35746606334922
96.88778280543045
111.90316742081515
117.2108597285075
128.278733031675
137.99457013574744
137.2036199095031
137.30769230769315
128.83438914027226
97.44977375565671
176.95656108597393
152.39728506787424
136.48597285067956
120.20000000000073
111.96199095022693
101.85429864253456
97.52850678733091
100.90678733031734
99.27239819004585
98.04615384615445
101.94389140271555
98.38461538461598
93.78823529411822
137.87782805429947
169.0588235294128
170.94208144796482
163.69049773755756
160.95475113122268
162.97285067873403
160.34298642534034
155.2696832579195
158.06334841629055
157.42171945701452
153.53212669683353
159.30859728506886
156.16289592760276
152.50045248868872
156.30497737556655
157.3113122171955
153.56470588235388
158.13484162896026
157.3194570135756
155.43257918552132
162.0678733031684
125.699547511313
84.43167420814531
44.089592760181276
97.67692307692367
61.317647058823894
55.151131221719794
83.85339366515889
104.52307692307755
124.69773755656185
124.40995475113198
122.41990950226318
106.64343891402781
113.92217194570205
141.9276018099556
98.72760180995536
135.816289592761
143.81085972850764
160.47601809954847
95.08778280543044
99.90588235294179
114.507692307693
129.66606334841708
134.83348416289675
146.79366515837194
154.85972850678826
152.74660633484257
144.6443438914036
132.168325791856
99.19004524886938
177.9701357466074
154.88235294117743
136.83348416289675
121.41538461538535
115.1475113122179
106.0407239819011
100.41176470588297
100.49864253393726
94.56742081448022
94.22805429864312
107.70045248868844
103.84796380090562
91.99547511312274
97.71764705882411
93.8941176470594
87.57285067873357
158.94570135746702
168.82805429864356
171.88144796380195
169.18009049773858
136.18280542986508
172.03348416289697
168.63800904977478
164.52217194570235
167.6244343891413
164.36199095022724
160.30588235294215
162.07873303167517
162.61357466063447
158.17466063348513
163.5239819004535
162.67692307692406
158.82352941176566
146.10678733031764
144.68416289592847
88.1638009049779
64.61628959276058
77.80000000000048
91.16380090497792
47.436199095022914
108.33122171945766
99.55203619909564
118.47239819004596
124.27420814479714
133.3212669683266
120.08144796380164
92.76470588235351
115.39819004524958
119.4380090497745
143.06063348416376
148.93393665158462
163.447963800906
131.2235294117655
99.41176470588296
109.87963800905045
126.81990950226322
132.3601809954759
141.87330316742168
145.13031674208233
141.6153846153855
130.7710407239827
118.45610859728579
166.33846153846252
155.78461538461633
138.03981900452573
125.38733031674283
113.19819004524956
106.97556561086039
99.01990950226305
94.91131221719515
97.14570135746665
94.27873303167479
152.54298642534027
126.95927601810031
127.32669683257996
91.9013574660639
96.87963800905034
92.63438914027206
89.38733031674263
134.55113122172028
167.36742081448068
169.95113122172046
166.468778280544
160.13212669683355
164.71945701357566
162.75384615384712
159.2253393665168
162.4995475113132
160.25791855203718
158.2886877828064
165.1203619909512
164.62986425339466
160.81357466063446
161.76832579185617
158.03257918552134
157.65339366515934
147.42714932126788
109.77194570135813
69.06425339366557
89.30769230769285
51.020814479638325
74.9619909502267
64.15022624434428
82.94208144796431
135.21357466063432
128.12036199095098
132.8452488687791
104.94117647058889
116.77647058823601
139.1285067873312
103.84796380090562
131.88235294117726
146.71945701357555
153.29954751131314
109.91221719457081
102.93484162895992
108.57194570135815
122.23981900452563
136.71221719457097
140.5837104072407
147.497737556562
146.54841628959366
137.08416289592844
117.55294117647131
140.82081447963887
161.91131221719556
143.8126696832588
127.18823529411841
113.72126696832649
103.76289592760244
101.91945701357527
95.32760180995533
90.14117647058879
94.03891402714989
90.95113122172002
89.53122171945756
94.55203619909558
91.58099547511367
90.0570135746612
94.66244343891461
91.52126696832636
90.20723981900508
93.19366515837162
172.98823529411868
142.34841628959362
167.07873303167523
162.83348416289692
165.10588235294216
161.62805429864352
158.40814479638107
162.30588235294215
160.99728506787426
157.56108597285163
160.78552036199193
160.18733031674304
157.13484162896023
161.53936651583808
159.88054298642632
156.79276018099642
162.13031674208244
164.46877828054397
127.4072398190053
94.25067873303223
42.430769230769485
88.44434389140325
82.63076923076972
49.297737556561394
91.40542986425395
135.58823529411845
119.43710407239891
118.03529411764778
132.58914027149402
103.23348416289656
116.39909502262516
142.6778280542995
92.0461538461544
124.09230769230845
139.08416289592844
146.9710407239828
152.0452488687792
108.14298642534003
97.78461538461599
103.8588235294124
114.83257918552107
128.4624434389148
133.0524886877836
138.36289592760266
137.6117647058832
132.1864253393673
118.36561085972923
142.064253393666
162.96199095022723
144.61990950226334
127.74027149321346
114.26425339366584
105.37918552036263
103.77104072398254
97.17647058823589
93.78009049773812
97.15384615384674
94.43981900452548
93.46968325791913
96.97375565610918
89.97375565610915
92.69502262443496
94.4941176470594
72.97375565610905
171.50407239819106
167.68868778280643
161.26696832579285
166.30678733031775
163.39095022624537
159.1547511312227
161.87149321267066
160.1049773755666
157.88144796380186
160.07511312217292
158.64072398190143
155.8778280542996
158.5963800904987
157.79185520362086
156.07601809954846
160.59909502262542
159.0904977375575
171.58009049773858
136.25972850678815
76.8334841628964
39.86696832579211
79.79547511312266
66.45429864253433
65.03619909502302
108.25520361991016
117.07963800905048
101.23529411764768
113.69321266968396
90.56380090497794
109.66877828054368
148.5475113122181
102.38371040724044
130.05972850678813
146.22714932126786
157.07420814479735
156.29683257918649
170.04343891402817
75.83619909502309
102.03167420814543
114.43438914027217
126.072398190046
130.11764705882433
131.87330316742162
134.0633484162904
124.59547511312293
162.70316742081545
163.71493212669782
144.30769230769317
128.7574660633492
118.89683257918624
108.3619909502269
100.97013574660696
102.563800904978
98.58823529411825
95.6126696832585
100.22986425339427
96.83167420814539
95.74027149321324
99.157466063349
95.90859728506845
88.88597285067928
189.5927601809966
166.57737556561187
169.14389140271595
166.40723981900553
160.85972850678831
163.6542986425349
162.2814479638019
158.80180995475212
162.4841628959286
160.79819004524984
156.32307692307788
160.32850678733126
159.73665158371136
157.76199095022722
160.5674208144806
160.30497737556658
153.49773755656202
141.36018099547596
80.71312217194618
76.86153846153891
73.20361990950272
46.252488687783085
79.19547511312265
130.39276018099625
111.53755656108665
110.95203619909569
117.39366515837176
133.3628959276026
134.90135746606416
96.97375565610919
133.63619909502344
140.71312217194657
154.94479638009145
163.6253393665168
98.13122171945761
93.55384615384672
107.04705882353008
112.65791855203688
122.1167420814487
129.8072398190053
127.86968325791932
124.2407239819012
114.29502262443509
137.45067873303253
159.0705882352951
138.8380090497746
123.55746606334917
110.72941176470655
105.11583710407304
97.70316742081508
93.81266968325849
96.74660633484221
93.67420814479695
93.19457013574717
96.72669683257976
92.95746606334899
91.2723981900458
94.47058823529468
90.25882352941231
86.20633484162948
155.1846153846163
150.31402714932216
164.49230769230869
161.4787330316752
157.52579185520457
160.5864253393675
158.12579185520457
155.6986425339376
159.14298642534033
157.1882352941186
154.25429864253488
158.23257918552133
158.21809954751228
155.19909502262539
159.82986425339465
154.1085972850688
136.63167420814563
79.4389140271498
92.65972850678789
50.62533936651616
74.65972850678777
46.70045248868808
155.5167420814489
114.42533936651654
108.1095022624441
117.82895927601882
112.54027149321335
110.08325791855269
111.86606334841697
122.98280542986498
143.07601809954838
147.0606334841638
160.09502262443533
156.49773755656204
92.71945701357524
101.65158371040786
117.98099547511383
123.72126696832655
134.574660633485
143.55022624434477
139.54117647058908
130.83981900452568
116.13755656108667
168.2932126696843
154.44253393665252
133.21900452488768
118.6108597285075
106.31493212669749
101.95384615384678
95.85429864253452
92.50497737556617
96.06153846153904
93.03348416289649
92.1882352941182
94.02895927601865
90.51674208144851
88.92941176470643
91.36923076923132
69.0506787330321
142.76561085972935
181.93574660633595
158.4461538461548
161.00090497737654
159.81085972850775
155.72307692307785
161.12126696832678
158.08778280543083
154.53393665158464
159.58280542986523
157.5701357466073
156.08416289592856
158.4407239819014
158.6036199095032
155.48416289592853
159.9782805429874
161.54841628959372
129.57194570135826
95.03800904977433
41.93122171945728
53.019004524887194
82.77375565610909
57.18642533936687
144.13212669683347
121.96199095022699
100.87239819004586
108.14208144796447
86.96018099547565
145.15475113122258
142.19366515837189
103.91583710407303
138.72398190045334
146.42533936651674
159.89049773755752
168.10407239819108
134.00723981900535
100.72307692307754
113.78009049773826
118.65791855203692
131.3945701357474
140.10045248868863
139.4461538461547
138.2171945701366
128.81085972850755
115.24434389140345
174.74208144796486
152.76470588235387
135.0036199095031
121.21266968325865
113.76470588235362
103.1140271493219
99.12036199095084
102.1556561085979
100.90678733031734
99.77828054298703
102.7764705882359
95.088687782806
157.31402714932221
89.8325791855209
133.11221719457095
172.13936651583816
166.52036199095124
160.58009049773852
166.75927601810056
163.22171945701456
155.6090497737566
161.0307692307702
160.53574660633583
157.02081447963897
160.95113122172046
160.53031674208242
156.5592760181005
160.304072398191
162.97013574660735
157.25701357466158
159.55022624434486
159.94932126696932
157.27601809954848
163.17828054298744
163.53484162896027
125.11040723981975
95.65610859728565
46.28778280543015
95.86153846153903
57.6488687782809
40.52398190045274
53.57104072398222
138.9909502262452
115.34479638009121
108.05791855203685
121.56289592760255
81.14841628959326
119.59276018099621
119.42714932126769
93.13122171945759
118.42352941176541
136.59276018099632
148.40090497737646
152.94660633484256
109.34570135746674
98.02171945701417
103.39728506787392
114.80995475113193
131.14660633484243
135.4959276018108
140.62986425339452
139.95837104072484
132.43348416289672
117.34298642534009
114.52941176470658
164.24886877828155
145.9972850678742
129.6235294117655
116.39819004524958
107.9619909502269
103.89230769230831
96.38642533936711
92.78552036199153
96.82624434389199
94.19276018099605
91.69411764705939
97.57104072398249
96.15565610859787
96.51764705882411
100.07149321267028
94.05429864253452
145.3149321266977
157.8850678733041
120.69321266968399
167.56561085972953
162.96742081448065
158.00090497737654
160.8995475113132
160.0470588235304
156.15475113122267
159.54841628959372
158.00000000000097
154.53393665158464
159.64072398190143
158.56108597285163
155.40000000000094
159.38914027149417
159.15746606334937
175.24524886877936
125.48235294117723
81.14298642533986
41.024434389140524
72.33393665158414
85.034389140272
23.637104072398344
78.01900452488736
145.2307692307701
110.67782805429931
115.26425339366585
125.4072398190053
78.17918552036248
120.23891402715005
129.66334841629035
89.25972850678787
128.39547511312296
144.78823529411855
148.79276018099637
141.30859728506874
97.60090497737616
104.0298642533943
117.00633484162968
131.44072398190127
137.1900452488696
146.01176470588325
148.9022624434398
144.23529411764792
131.42895927601887
114.64615384615453
165.4262443438924
157.1194570135756
138.27782805429948
123.72850678733107
111.82986425339433
106.99095022624499
100.65158371040785
95.86877828054358
97.43257918552095
93.07692307692365
91.93212669683314
96.40271493212728
93.08506787330374
90.76289592760236
95.36018099547569
91.26063348416345
89.4144796380096
91.71131221719511
86.79185520362043
143.02805429864338
165.25701357466164
161.36470588235392
163.6760180995485
162.75656108597386
160.58552036199194
166.0660633484173
164.99276018099647
162.06515837104172
164.26696832579285
161.28687782805528
156.2959276018109
162.43438914027246
158.05791855203717
155.39457013574756
113.9366515837111
109.34298642534003
51.286877828054614
84.70135746606385
55.34660633484198
81.64615384615435
68.2452488687787
87.35475113122226
133.72036199095103
127.32307692307771
130.2072398190053
102.65248868778345
132.19095022624515
108.51855203619975
95.71402714932185
123.561990950227
146.99819004524974
155.145701357467
114.11945701357537
104.77466063348479
110.64343891402783
126.63438914027228
138.843438914028
142.86153846153934
150.1511312217204
146.6389140271502
139.12579185520448
119.44886877828127
143.16380090497827
159.68778280543086
141.74479638009137
124.32941176470663
112.22805429864322
101.36470588235355
98.16561085972909
92.45791855203677
112.85158371040794
104.00452488687847
165.1873303167431
169.33665158371144
169.01447963801007
183.59638009049885
146.35203619909592
94.10497737556618
88.98552036199149
144.20995475113207
168.9266968325802
163.83800904977474
166.22081447963905
164.0552036199105
160.39276018099645
161.9230769230779
162.0552036199105
157.00180995475208
157.7167420814489
158.62171945701454
155.33212669683354
158.28778280543082
156.34208144796474
156.3013574660643
159.45520361991046
155.62443438914121
156.95022624434483
163.21447963801006
135.27601809954834
133.46787330316823
75.43167420814527
76.1122171945706
67.63710407239861
63.15656108597324
56.639819004525236
138.8298642533945
119.98099547511384
102.58190045248932
109.02443438914094
82.85429864253445
122.19457013574734
100.23529411764767
106.3149321266975
124.53846153846229
130.53484162896007
146.83167420814567
157.36923076923173
159.50316742081543
114.94389140271564
105.09683257918616
110.12488687782871
120.5402714932134
130.96561085972928
131.4561085972859
130.1837104072406
124.49864253393741
94.06425339366574
174.4986425339377
150.17466063348508
134.10769230769313
119.42805429864326
110.58823529411832
100.69502262443498
92.7701357466069
92.64434389140327
89.98733031674263
87.83710407239873
92.07873303167476
87.85067873303221
87.19457013574714
91.71040723981957
87.66334841629013
85.12036199095076
132.1737556561094
159.78190045248965
163.2714932126707
160.4941176470598
155.24524886877924
157.51493212669777
153.74208144796472
151.49864253393758
155.60180995475207
152.72398190045342
149.63076923077014
152.48144796380183
152.1502262443448
150.21990950226336
152.9819004524896
151.75022624434482
150.24977375565703
143.5990950226253
144.2334841628968
27.6651583710409
96.29049773755713
49.37104072398221
23.523076923077074
83.52579185520412
126.19185520362069
97.05701357466123
106.63619909502327
119.78733031674281
109.4859728506794
98.80814479638069
123.32307692307765
109.84705882353009
127.27239819004603
137.21357466063432
139.41266968325877
148.37285067873393
112.30950226244411
80.92036199095071
92.65339366515894
107.38280542986492
114.11583710407311
121.61447963800978
123.45248868778356
119.38280542986499
97.85972850678792
179.71221719457122
143.7728506787339
125.17556561086049
113.7230769230776
102.12307692307753
93.06877828054355
92.87601809954808
89.35203619909556
88.94117647058877
92.2018099547517
88.98552036199149
87.02081447963855
90.27330316742136
87.22895927601863
84.11402714932177
84.50859728506838
147.8868778280552
160.420814479639
157.6009049773765
152.95656108597376
155.52941176470682
152.64072398190137
150.56199095022714
154.86515837104167
151.93031674208237
149.06877828054388
151.79457013574753
151.73122171945795
148.61538461538552
152.8407239819014
153.7773755656118
131.69321266968407
97.16651583710467
41.00271493212695
82.77013574660683
59.66968325791891
58.27692307692344
109.2470588235301
125.46063348416367
111.02895927601878
109.37466063348484
117.9158371040731
128.86153846153923
126.68597285067949
90.2226244343897
131.7918552036207
138.2669683257927
151.4371040723991
159.40814479638107
94.91945701357524
91.61447963800961
102.84886877828117
109.7040723981907
117.12307692307766
125.40542986425416
125.03800904977453
121.26696832579259
109.78009049773823
132.20000000000078
153.54389140271587
131.17918552036278
117.066063348417
103.7321266968332
98.62081447963861
92.90859728506844
88.67601809954805
89.71674208144852
88.41809954751186
88.8352941176476
90.84162895927656
87.55475113122225
84.71945701357518
87.46787330316795
86.1855203619915
163.47692307692407
160.65067873303266
155.35384615384712
157.59004524886973
157.35475113122266
152.2588235294127
155.42171945701452
152.2742081447973
150.38823529411854
153.88959276018193
152.63438914027242
148.5447963800914
151.89411764705974
152.32850678733124
149.228959276019
154.12850678733125
154.62081447963897
130.81176470588315
88.32217194570188
96.4361990950232
40.67692307692333
77.33122171945747
74.12579185520408
134.94660633484244
112.58733031674277
97.88325791855263
105.81266968325856
86.27873303167473
112.39547511312284
136.04705882353025
96.79909502262502
131.10045248868857
136.8959276018108
148.01990950226335
